EXPLAIN
TAG	LSV
TITLE	LABEL	LSV	Test Identifier
DATE	LABEL	11/7/2023	Date
TIME	LABEL	10:54:18	Time
NOTES	NOTES	1	Notes...
	
PSTAT	PSTAT	IFC1010-36108	Potentiostat
VINIT	POTEN	1.50000E+000	F	Initial E (V)
VFINAL	POTEN	0.00000E+000	F	Final E (V)
SCANRATE	QUANT	2.00000E+001	Scan Rate (mV/s)
STEPSIZE	QUANT	2.00000E+000	Step Size (mV)
IMODE	SELECTOR	0	I/E Range Mode
IRANGE	QUANT	3.00000E-001	Max Current (mA)
AREA	QUANT	1.00000E+000	Sample Area (cm^2)
EQDELAY	QUANT	0.00000E+000	Equil. Time (s)
IRCOMP	SELECTOR	0	IRComp
PFCOR	QUANT	5.00000E+001	PF Corr. (ohm)
SAMPLINGMODE	SELECTOR	1	Sampling Mode
EOC	QUANT	0	Open Circuit (V)
ELECTRODETYPE	SELECTOR	0	Electrode Type
STRIPPING	TOGGLE	F	Used for Stripping
SEQUENCER	TOGGLE	TRUE	Run as Sequence
PSTATMODEL	IQUANT	64	Pstat Model
PSTATSECTION	LABEL	IFC1010-36108	Pstat Section
PSTATSERIALNO	LABEL	36108	Pstat Serial Number
CTRLMODE	IQUANT	1	Control Mode
ELECTROMETER	IQUANT	0	RE=0 or CS=1
IESTAB	IQUANT	2	I/E Stability
CASPEED	IQUANT	4	Control Amp Speed
CONVENTION	IQUANT	1	Current Convention
ICHRANGE	IQUANT	2	Ich Range
ICHRANGEMODE	TOGGLE	F	Ich Auto Range
ICHOFFSETENABLE	TOGGLE	F	Ich Offset Enable
ICHOFFSET	QUANT	0	Ich Offset (V)
ICHFILTER	IQUANT	3	Ich Filter
VCHRANGE	IQUANT	2	Vch Range
VCHRANGEMODE	TOGGLE	F	Vch Auto Range
VCHOFFSETENABLE	TOGGLE	F	Vch Offset Enable
VCHOFFSET	QUANT	0	Vch Offset (V)
VCHFILTER	IQUANT	3	Vch Filter
IERANGELOWERLIMIT	IQUANT	4	I/E Range Lower Limit
IERANGEMODE	TOGGLE	T	I/E AutoRange
IERANGE	IQUANT	9	I/E Range
ACHSELECT	IQUANT	0	Ach Select
ACHRANGE	IQUANT	2	Ach Range
ACHOFFSETENABLE	TOGGLE	F	Ach Offset Enable
ACHOFFSET	QUANT	0	Ach Offset (V)
ACHFILTER	IQUANT	1	Ach Filter
SENSECABLEID	IQUANT	13	Sense Cable ID
PWRCABLEID	IQUANT	13	Power Cable ID
DCCALDATE	LABEL	8/10/2023	DC Calibration Date
ACCALDATE	LABEL	6/3/2023	AC Calibration Date
FRAMEWORKVERSION	LABEL	7.10.1	Framework Version
INSTRUMENTVERSION	LABEL	4.80	Instrument Version
COMMVERSION	LABEL	3.10	Communications Version
CPUPLDVERSION	LABEL	2.22	CPU PLD Version
CTRLPLDVERSION	LABEL	0.00	CTRL PLD Version
PSTATPLDVERSION	LABEL	0.00	PSTAT PLD Version
CURVE	TABLE	751
	Pt	T	Vf	Im	Vu	Sig	Ach	IERange	Over	Cycle	Temp
	#	s	V vs. Ref.	A	V	V	V	#	bits	#	deg C
	0	0.1	1.50008E+000	1.09347E-003	0.00000E+000	1.50000E+000	0.00000E+000	9	....ih..i..	0	1466.89
	1	0.2	1.49809E+000	3.48251E-003	0.00000E+000	1.49801E+000	0.00000E+000	10	...........	0	1466.89
	2	0.3	1.49608E+000	3.45506E-003	0.00000E+000	1.49601E+000	0.00000E+000	10	...........	0	1466.89
	3	0.4	1.49409E+000	3.43182E-003	0.00000E+000	1.49401E+000	0.00000E+000	10	...........	0	1466.89
	4	0.5	1.49209E+000	3.41089E-003	0.00000E+000	1.49201E+000	0.00000E+000	10	...........	0	1466.89
	5	0.6	1.49010E+000	3.39166E-003	0.00000E+000	1.49001E+000	0.00000E+000	10	...........	0	1466.89
	6	0.7	1.48810E+000	3.37306E-003	0.00000E+000	1.48801E+000	0.00000E+000	10	...........	0	1466.89
	7	0.8	1.48608E+000	3.35605E-003	0.00000E+000	1.48601E+000	0.00000E+000	10	...........	0	1466.89
	8	0.9	1.48406E+000	3.33881E-003	0.00000E+000	1.48401E+000	0.00000E+000	10	...........	0	1466.89
	9	1	1.48209E+000	3.32208E-003	0.00000E+000	1.48201E+000	0.00000E+000	10	...........	0	1466.89
	10	1.1	1.48010E+000	3.30524E-003	0.00000E+000	1.48001E+000	0.00000E+000	10	...........	0	1466.89
	11	1.2	1.47810E+000	3.28862E-003	0.00000E+000	1.47801E+000	0.00000E+000	10	...........	0	1466.89
	12	1.3	1.47610E+000	3.27184E-003	0.00000E+000	1.47601E+000	0.00000E+000	10	...........	0	1466.80
	13	1.4	1.47411E+000	3.25572E-003	0.00000E+000	1.47402E+000	0.00000E+000	10	...........	0	1466.80
	14	1.5	1.47209E+000	3.24006E-003	0.00000E+000	1.47202E+000	0.00000E+000	10	...........	0	1466.80
	15	1.6	1.47010E+000	3.22435E-003	0.00000E+000	1.47002E+000	0.00000E+000	10	...........	0	1466.80
	16	1.7	1.46807E+000	3.20897E-003	0.00000E+000	1.46802E+000	0.00000E+000	10	...........	0	1466.80
	17	1.8	1.46608E+000	3.19534E-003	0.00000E+000	1.46602E+000	0.00000E+000	10	...........	0	1466.80
	18	1.9	1.46409E+000	3.17999E-003	0.00000E+000	1.46402E+000	0.00000E+000	10	...........	0	1466.80
	19	2	1.46210E+000	3.16441E-003	0.00000E+000	1.46202E+000	0.00000E+000	10	...........	0	1466.80
	20	2.1	1.46008E+000	3.14894E-003	0.00000E+000	1.46002E+000	0.00000E+000	10	...........	0	1466.80
	21	2.2	1.45809E+000	3.13313E-003	0.00000E+000	1.45802E+000	0.00000E+000	10	...........	0	1466.80
	22	2.3	1.45609E+000	3.11845E-003	0.00000E+000	1.45602E+000	0.00000E+000	10	...........	0	1466.71
	23	2.4	1.45411E+000	3.10272E-003	0.00000E+000	1.45402E+000	0.00000E+000	10	...........	0	1466.71
	24	2.5	1.45210E+000	3.08755E-003	0.00000E+000	1.45202E+000	0.00000E+000	10	...........	0	1466.71
	25	2.6	1.45005E+000	3.07212E-003	0.00000E+000	1.44998E+000	0.00000E+000	10	...........	0	1466.71
	26	2.7	1.44806E+000	3.05747E-003	0.00000E+000	1.44798E+000	0.00000E+000	10	...........	0	1466.71
	27	2.8	1.44602E+000	3.04179E-003	0.00000E+000	1.44598E+000	0.00000E+000	10	...........	0	1466.71
	28	2.9	1.44404E+000	3.02706E-003	0.00000E+000	1.44398E+000	0.00000E+000	10	...........	0	1466.71
	29	3	1.44204E+000	3.01172E-003	0.00000E+000	1.44198E+000	0.00000E+000	10	...........	0	1466.71
	30	3.1	1.44006E+000	2.99635E-003	0.00000E+000	1.43998E+000	0.00000E+000	10	...........	0	1466.71
	31	3.2	1.43806E+000	2.98099E-003	0.00000E+000	1.43798E+000	0.00000E+000	10	...........	0	1466.71
	32	3.3	1.43605E+000	2.96569E-003	0.00000E+000	1.43598E+000	0.00000E+000	10	...........	0	1466.71
	33	3.4	1.43403E+000	2.95098E-003	0.00000E+000	1.43398E+000	0.00000E+000	10	...........	0	1466.71
	34	3.5	1.43205E+000	2.93612E-003	0.00000E+000	1.43198E+000	0.00000E+000	10	...........	0	1466.71
	35	3.6	1.43006E+000	2.92103E-003	0.00000E+000	1.42998E+000	0.00000E+000	10	...........	0	1466.71
	36	3.7	1.42805E+000	2.90562E-003	0.00000E+000	1.42798E+000	0.00000E+000	10	...........	0	1466.71
	37	3.8	1.42608E+000	2.89050E-003	0.00000E+000	1.42599E+000	0.00000E+000	10	...........	0	1466.71
	38	3.9	1.42408E+000	2.87539E-003	0.00000E+000	1.42399E+000	0.00000E+000	10	...........	0	1466.71
	39	4	1.42208E+000	2.86025E-003	0.00000E+000	1.42199E+000	0.00000E+000	10	...........	0	1466.71
	40	4.1	1.42006E+000	2.84571E-003	0.00000E+000	1.41999E+000	0.00000E+000	10	...........	0	1466.71
	41	4.2	1.41806E+000	2.83062E-003	0.00000E+000	1.41799E+000	0.00000E+000	10	...........	0	1466.71
	42	4.3	1.41608E+000	2.81572E-003	0.00000E+000	1.41599E+000	0.00000E+000	10	...........	0	1466.71
	43	4.4	1.41407E+000	2.80062E-003	0.00000E+000	1.41399E+000	0.00000E+000	10	...........	0	1466.71
	44	4.5	1.41206E+000	2.78583E-003	0.00000E+000	1.41199E+000	0.00000E+000	10	...........	0	1466.71
	45	4.6	1.41006E+000	2.77097E-003	0.00000E+000	1.40999E+000	0.00000E+000	10	...........	0	1466.71
	46	4.7	1.40805E+000	2.75614E-003	0.00000E+000	1.40799E+000	0.00000E+000	10	...........	0	1466.71
	47	4.8	1.40607E+000	2.74141E-003	0.00000E+000	1.40599E+000	0.00000E+000	10	...........	0	1466.71
	48	4.9	1.40407E+000	2.72685E-003	0.00000E+000	1.40400E+000	0.00000E+000	10	...........	0	1466.71
	49	5	1.40207E+000	2.71272E-003	0.00000E+000	1.40200E+000	0.00000E+000	10	...........	0	1466.71
	50	5.1	1.40008E+000	2.69803E-003	0.00000E+000	1.40000E+000	0.00000E+000	10	...........	0	1466.71
	51	5.2	1.39809E+000	2.68422E-003	0.00000E+000	1.39800E+000	0.00000E+000	10	...........	0	1466.71
	52	5.3	1.39606E+000	2.66971E-003	0.00000E+000	1.39600E+000	0.00000E+000	10	...........	0	1466.71
	53	5.4	1.39407E+000	2.65529E-003	0.00000E+000	1.39400E+000	0.00000E+000	10	...........	0	1466.71
	54	5.5	1.39208E+000	2.64095E-003	0.00000E+000	1.39200E+000	0.00000E+000	10	...........	0	1466.71
	55	5.6	1.39008E+000	2.62660E-003	0.00000E+000	1.39000E+000	0.00000E+000	10	...........	0	1466.71
	56	5.7	1.38808E+000	2.61246E-003	0.00000E+000	1.38800E+000	0.00000E+000	10	...........	0	1466.71
	57	5.8	1.38608E+000	2.59841E-003	0.00000E+000	1.38600E+000	0.00000E+000	10	...........	0	1466.71
	58	5.9	1.38408E+000	2.58412E-003	0.00000E+000	1.38400E+000	0.00000E+000	10	...........	0	1466.71
	59	6	1.38207E+000	2.56975E-003	0.00000E+000	1.38200E+000	0.00000E+000	10	...........	0	1466.71
	60	6.1	1.38006E+000	2.55587E-003	0.00000E+000	1.38001E+000	0.00000E+000	10	...........	0	1466.71
	61	6.2	1.37806E+000	2.54221E-003	0.00000E+000	1.37801E+000	0.00000E+000	10	...........	0	1466.71
	62	6.3	1.37607E+000	2.52805E-003	0.00000E+000	1.37601E+000	0.00000E+000	10	...........	0	1466.80
	63	6.4	1.37408E+000	2.51399E-003	0.00000E+000	1.37401E+000	0.00000E+000	10	...........	0	1466.80
	64	6.5	1.37209E+000	2.50000E-003	0.00000E+000	1.37201E+000	0.00000E+000	10	...........	0	1466.80
	65	6.6	1.37008E+000	2.48572E-003	0.00000E+000	1.37001E+000	0.00000E+000	10	...........	0	1466.80
	66	6.7	1.36808E+000	2.47166E-003	0.00000E+000	1.36801E+000	0.00000E+000	10	...........	0	1466.80
	67	6.8	1.36607E+000	2.45734E-003	0.00000E+000	1.36601E+000	0.00000E+000	10	...........	0	1466.80
	68	6.9	1.36408E+000	2.44328E-003	0.00000E+000	1.36401E+000	0.00000E+000	10	...........	0	1466.80
	69	7	1.36209E+000	2.42945E-003	0.00000E+000	1.36201E+000	0.00000E+000	10	...........	0	1466.80
	70	7.1	1.36010E+000	2.41535E-003	0.00000E+000	1.36001E+000	0.00000E+000	10	...........	0	1466.80
	71	7.2	1.35809E+000	2.40152E-003	0.00000E+000	1.35801E+000	0.00000E+000	10	...........	0	1466.80
	72	7.3	1.35609E+000	2.38752E-003	0.00000E+000	1.35602E+000	0.00000E+000	10	...........	0	1466.71
	73	7.4	1.35408E+000	2.37379E-003	0.00000E+000	1.35402E+000	0.00000E+000	10	...........	0	1466.71
	74	7.5	1.35211E+000	2.36031E-003	0.00000E+000	1.35202E+000	0.00000E+000	10	...........	0	1466.71
	75	7.6	1.35010E+000	2.34654E-003	0.00000E+000	1.35002E+000	0.00000E+000	10	...........	0	1466.71
	76	7.7	1.34811E+000	2.34218E-003	0.00000E+000	1.34802E+000	0.00000E+000	10	...........	0	1466.71
	77	7.8	1.34612E+000	2.33077E-003	0.00000E+000	1.34602E+000	0.00000E+000	10	...........	0	1466.71
	78	7.9	1.34409E+000	2.31800E-003	0.00000E+000	1.34402E+000	0.00000E+000	10	...........	0	1466.71
	79	8	1.34210E+000	2.30491E-003	0.00000E+000	1.34202E+000	0.00000E+000	10	...........	0	1466.71
	80	8.1	1.34009E+000	2.29142E-003	0.00000E+000	1.34002E+000	0.00000E+000	10	...........	0	1466.71
	81	8.2	1.33810E+000	2.27805E-003	0.00000E+000	1.33802E+000	0.00000E+000	10	...........	0	1466.71
	82	8.3	1.33610E+000	2.26471E-003	0.00000E+000	1.33602E+000	0.00000E+000	10	...........	0	1466.71
	83	8.4	1.33412E+000	2.25115E-003	0.00000E+000	1.33402E+000	0.00000E+000	10	...........	0	1466.71
	84	8.5	1.33203E+000	2.23720E-003	0.00000E+000	1.33198E+000	0.00000E+000	10	...........	0	1466.71
	85	8.6	1.33003E+000	2.22381E-003	0.00000E+000	1.32998E+000	0.00000E+000	10	...........	0	1466.71
	86	8.7	1.32804E+000	2.21032E-003	0.00000E+000	1.32798E+000	0.00000E+000	10	...........	0	1466.71
	87	8.8	1.32605E+000	2.19687E-003	0.00000E+000	1.32598E+000	0.00000E+000	10	...........	0	1466.71
	88	8.9	1.32404E+000	2.18340E-003	0.00000E+000	1.32398E+000	0.00000E+000	10	...........	0	1466.71
	89	9	1.32205E+000	2.17005E-003	0.00000E+000	1.32198E+000	0.00000E+000	10	...........	0	1466.71
	90	9.1	1.32007E+000	2.15652E-003	0.00000E+000	1.31998E+000	0.00000E+000	10	...........	0	1466.71
	91	9.2	1.31804E+000	2.14331E-003	0.00000E+000	1.31798E+000	0.00000E+000	10	...........	0	1466.71
	92	9.3	1.31605E+000	2.13014E-003	0.00000E+000	1.31598E+000	0.00000E+000	10	...........	0	1466.71
	93	9.4	1.31405E+000	2.11708E-003	0.00000E+000	1.31398E+000	0.00000E+000	10	...........	0	1466.71
	94	9.5	1.31204E+000	2.10409E-003	0.00000E+000	1.31198E+000	0.00000E+000	10	...........	0	1466.71
	95	9.6	1.31007E+000	2.09123E-003	0.00000E+000	1.30998E+000	0.00000E+000	10	...........	0	1466.71
	96	9.7	1.30806E+000	2.07812E-003	0.00000E+000	1.30799E+000	0.00000E+000	10	...........	0	1466.71
	97	9.8	1.30603E+000	2.06512E-003	0.00000E+000	1.30599E+000	0.00000E+000	10	...........	0	1466.71
	98	9.9	1.30404E+000	2.05204E-003	0.00000E+000	1.30399E+000	0.00000E+000	10	...........	0	1466.71
	99	10	1.30205E+000	2.03906E-003	0.00000E+000	1.30199E+000	0.00000E+000	10	...........	0	1466.71
	100	10.1	1.30005E+000	2.02601E-003	0.00000E+000	1.29999E+000	0.00000E+000	10	...........	0	1466.71
	101	10.2	1.29807E+000	2.01302E-003	0.00000E+000	1.29799E+000	0.00000E+000	10	...........	0	1466.71
	102	10.3	1.29607E+000	2.00021E-003	0.00000E+000	1.29599E+000	0.00000E+000	10	...........	0	1466.71
	103	10.4	1.29408E+000	1.98726E-003	0.00000E+000	1.29399E+000	0.00000E+000	10	...........	0	1466.71
	104	10.5	1.29204E+000	1.97443E-003	0.00000E+000	1.29199E+000	0.00000E+000	10	...........	0	1466.71
	105	10.6	1.29006E+000	1.96195E-003	0.00000E+000	1.28999E+000	0.00000E+000	10	...........	0	1466.71
	106	10.7	1.28806E+000	1.94930E-003	0.00000E+000	1.28799E+000	0.00000E+000	10	...........	0	1466.71
	107	10.8	1.28607E+000	1.93673E-003	0.00000E+000	1.28600E+000	0.00000E+000	10	...........	0	1466.71
	108	10.9	1.28407E+000	1.92412E-003	0.00000E+000	1.28400E+000	0.00000E+000	10	...........	0	1466.71
	109	11	1.28208E+000	1.91169E-003	0.00000E+000	1.28200E+000	0.00000E+000	10	...........	0	1466.71
	110	11.1	1.28003E+000	1.89918E-003	0.00000E+000	1.28000E+000	0.00000E+000	10	...........	0	1466.71
	111	11.2	1.27805E+000	1.88692E-003	0.00000E+000	1.27800E+000	0.00000E+000	10	...........	0	1466.71
	112	11.3	1.27606E+000	1.87484E-003	0.00000E+000	1.27600E+000	0.00000E+000	10	...........	0	1466.71
	113	11.4	1.27405E+000	1.86231E-003	0.00000E+000	1.27400E+000	0.00000E+000	10	...........	0	1466.71
	114	11.5	1.27205E+000	1.85016E-003	0.00000E+000	1.27200E+000	0.00000E+000	10	...........	0	1466.71
	115	11.6	1.27008E+000	1.83802E-003	0.00000E+000	1.27000E+000	0.00000E+000	10	...........	0	1466.71
	116	11.7	1.26805E+000	1.82590E-003	0.00000E+000	1.26800E+000	0.00000E+000	10	...........	0	1466.71
	117	11.8	1.26606E+000	1.81390E-003	0.00000E+000	1.26600E+000	0.00000E+000	10	...........	0	1466.71
	118	11.9	1.26404E+000	1.80163E-003	0.00000E+000	1.26400E+000	0.00000E+000	10	...........	0	1466.71
	119	12	1.26207E+000	1.78960E-003	0.00000E+000	1.26201E+000	0.00000E+000	10	...........	0	1466.71
	120	12.1	1.26006E+000	1.77793E-003	0.00000E+000	1.26001E+000	0.00000E+000	10	...........	0	1466.71
	121	12.2	1.25807E+000	1.76625E-003	0.00000E+000	1.25801E+000	0.00000E+000	10	...........	0	1466.71
	122	12.3	1.25608E+000	1.75443E-003	0.00000E+000	1.25601E+000	0.00000E+000	10	...........	0	1466.71
	123	12.4	1.25406E+000	1.74269E-003	0.00000E+000	1.25401E+000	0.00000E+000	10	...........	0	1466.71
	124	12.5	1.25206E+000	1.73093E-003	0.00000E+000	1.25201E+000	0.00000E+000	10	...........	0	1466.71
	125	12.6	1.25006E+000	1.71917E-003	0.00000E+000	1.25001E+000	0.00000E+000	10	...........	0	1466.71
	126	12.7	1.24806E+000	1.70756E-003	0.00000E+000	1.24801E+000	0.00000E+000	10	...........	0	1466.71
	127	12.8	1.24607E+000	1.69618E-003	0.00000E+000	1.24601E+000	0.00000E+000	10	...........	0	1466.71
	128	12.9	1.24407E+000	1.68459E-003	0.00000E+000	1.24401E+000	0.00000E+000	10	...........	0	1466.71
	129	13	1.24205E+000	1.67342E-003	0.00000E+000	1.24201E+000	0.00000E+000	10	...........	0	1466.71
	130	13.1	1.24007E+000	1.66216E-003	0.00000E+000	1.24001E+000	0.00000E+000	10	...........	0	1466.71
	131	13.2	1.23806E+000	1.65089E-003	0.00000E+000	1.23802E+000	0.00000E+000	10	...........	0	1466.71
	132	13.3	1.23605E+000	1.63970E-003	0.00000E+000	1.23602E+000	0.00000E+000	10	...........	0	1466.71
	133	13.4	1.23407E+000	1.62850E-003	0.00000E+000	1.23402E+000	0.00000E+000	10	...........	0	1466.71
	134	13.5	1.23207E+000	1.61757E-003	0.00000E+000	1.23202E+000	0.00000E+000	10	...........	0	1466.71
	135	13.6	1.23010E+000	1.60646E-003	0.00000E+000	1.23002E+000	0.00000E+000	10	...........	0	1466.71
	136	13.7	1.22808E+000	1.59547E-003	0.00000E+000	1.22802E+000	0.00000E+000	10	...........	0	1466.71
	137	13.8	1.22608E+000	1.58462E-003	0.00000E+000	1.22602E+000	0.00000E+000	10	...........	0	1466.71
	138	13.9	1.22409E+000	1.57379E-003	0.00000E+000	1.22402E+000	0.00000E+000	10	...........	0	1466.71
	139	14	1.22209E+000	1.56312E-003	0.00000E+000	1.22202E+000	0.00000E+000	10	...........	0	1466.71
	140	14.1	1.22010E+000	1.55232E-003	0.00000E+000	1.22002E+000	0.00000E+000	10	...........	0	1466.71
	141	14.2	1.21810E+000	1.54175E-003	0.00000E+000	1.21802E+000	0.00000E+000	10	...........	0	1466.71
	142	14.3	1.21609E+000	1.53135E-003	0.00000E+000	1.21602E+000	0.00000E+000	10	...........	0	1466.71
	143	14.4	1.21405E+000	1.52057E-003	0.00000E+000	1.21398E+000	0.00000E+000	10	...........	0	1466.71
	144	14.5	1.21204E+000	1.51005E-003	0.00000E+000	1.21198E+000	0.00000E+000	10	...........	0	1466.71
	145	14.6	1.21005E+000	1.50008E-003	0.00000E+000	1.20998E+000	0.00000E+000	10	...........	0	1466.71
	146	14.7	1.20804E+000	1.48995E-003	0.00000E+000	1.20798E+000	0.00000E+000	10	...........	0	1466.71
	147	14.8	1.20604E+000	1.47987E-003	0.00000E+000	1.20598E+000	0.00000E+000	10	...........	0	1466.71
	148	14.9	1.20402E+000	1.46981E-003	0.00000E+000	1.20398E+000	0.00000E+000	10	...........	0	1466.71
	149	15	1.20203E+000	1.45991E-003	0.00000E+000	1.20198E+000	0.00000E+000	10	...........	0	1466.71
	150	15.1	1.20004E+000	1.45007E-003	0.00000E+000	1.19998E+000	0.00000E+000	10	...........	0	1466.71
	151	15.2	1.19805E+000	1.44035E-003	0.00000E+000	1.19798E+000	0.00000E+000	10	...........	0	1466.71
	152	15.3	1.19605E+000	1.43064E-003	0.00000E+000	1.19598E+000	0.00000E+000	10	...........	0	1466.71
	153	15.4	1.19405E+000	1.42123E-003	0.00000E+000	1.19398E+000	0.00000E+000	10	...........	0	1466.71
	154	15.5	1.19207E+000	1.41181E-003	0.00000E+000	1.19199E+000	0.00000E+000	10	...........	0	1466.71
	155	15.6	1.19004E+000	1.40240E-003	0.00000E+000	1.18999E+000	0.00000E+000	10	...........	0	1466.71
	156	15.7	1.18803E+000	1.39312E-003	0.00000E+000	1.18799E+000	0.00000E+000	10	...........	0	1466.71
	157	15.8	1.18606E+000	1.38395E-003	0.00000E+000	1.18599E+000	0.00000E+000	10	...........	0	1466.71
	158	15.9	1.18405E+000	1.37517E-003	0.00000E+000	1.18399E+000	0.00000E+000	10	...........	0	1466.71
	159	16	1.18206E+000	1.36602E-003	0.00000E+000	1.18199E+000	0.00000E+000	10	...........	0	1466.71
	160	16.1	1.18005E+000	1.35752E-003	0.00000E+000	1.17999E+000	0.00000E+000	10	...........	0	1466.71
	161	16.2	1.17803E+000	1.34865E-003	0.00000E+000	1.17799E+000	0.00000E+000	10	...........	0	1466.71
	162	16.3	1.17605E+000	1.33999E-003	0.00000E+000	1.17599E+000	0.00000E+000	10	...........	0	1466.71
	163	16.4	1.17405E+000	1.33163E-003	0.00000E+000	1.17399E+000	0.00000E+000	10	...........	0	1466.71
	164	16.5	1.17206E+000	1.32325E-003	0.00000E+000	1.17199E+000	0.00000E+000	10	...........	0	1466.71
	165	16.6	1.17006E+000	1.31478E-003	0.00000E+000	1.16999E+000	0.00000E+000	10	...........	0	1466.71
	166	16.7	1.16806E+000	1.30655E-003	0.00000E+000	1.16800E+000	0.00000E+000	10	...........	0	1466.71
	167	16.8	1.16608E+000	1.29845E-003	0.00000E+000	1.16600E+000	0.00000E+000	10	...........	0	1466.71
	168	16.9	1.16405E+000	1.29021E-003	0.00000E+000	1.16400E+000	0.00000E+000	10	...........	0	1466.71
	169	17	1.16205E+000	1.28221E-003	0.00000E+000	1.16200E+000	0.00000E+000	10	...........	0	1466.71
	170	17.1	1.16007E+000	1.27427E-003	0.00000E+000	1.16000E+000	0.00000E+000	10	...........	0	1466.71
	171	17.2	1.15809E+000	1.26650E-003	0.00000E+000	1.15800E+000	0.00000E+000	10	...........	0	1466.71
	172	17.3	1.15610E+000	1.25865E-003	0.00000E+000	1.15600E+000	0.00000E+000	10	...........	0	1466.71
	173	17.4	1.15411E+000	1.25080E-003	0.00000E+000	1.15400E+000	0.00000E+000	10	...........	0	1466.71
	174	17.5	1.15207E+000	1.24361E-003	0.00000E+000	1.15200E+000	0.00000E+000	10	...........	0	1466.71
	175	17.6	1.15009E+000	1.23611E-003	0.00000E+000	1.15000E+000	0.00000E+000	10	...........	0	1466.71
	176	17.7	1.14809E+000	1.22852E-003	0.00000E+000	1.14800E+000	0.00000E+000	10	...........	0	1466.71
	177	17.8	1.14608E+000	1.22126E-003	0.00000E+000	1.14600E+000	0.00000E+000	10	...........	0	1466.71
	178	17.9	1.14408E+000	1.21409E-003	0.00000E+000	1.14401E+000	0.00000E+000	10	...........	0	1466.71
	179	18	1.14209E+000	1.20705E-003	0.00000E+000	1.14201E+000	0.00000E+000	10	...........	0	1466.71
	180	18.1	1.14007E+000	1.20002E-003	0.00000E+000	1.14001E+000	0.00000E+000	10	...........	0	1466.71
	181	18.2	1.13807E+000	1.19308E-003	0.00000E+000	1.13801E+000	0.00000E+000	10	...........	0	1466.71
	182	18.3	1.13608E+000	1.18607E-003	0.00000E+000	1.13601E+000	0.00000E+000	10	...........	0	1466.71
	183	18.4	1.13410E+000	1.17922E-003	0.00000E+000	1.13401E+000	0.00000E+000	10	...........	0	1466.71
	184	18.5	1.13209E+000	1.17261E-003	0.00000E+000	1.13201E+000	0.00000E+000	10	...........	0	1466.71
	185	18.6	1.13009E+000	1.16603E-003	0.00000E+000	1.13001E+000	0.00000E+000	10	...........	0	1466.71
	186	18.7	1.12809E+000	1.15960E-003	0.00000E+000	1.12801E+000	0.00000E+000	10	...........	0	1466.71
	187	18.8	1.12607E+000	1.15326E-003	0.00000E+000	1.12601E+000	0.00000E+000	10	...........	0	1466.71
	188	18.9	1.12408E+000	1.14692E-003	0.00000E+000	1.12401E+000	0.00000E+000	10	...........	0	1466.71
	189	19	1.12209E+000	1.14068E-003	0.00000E+000	1.12201E+000	0.00000E+000	10	...........	0	1466.71
	190	19.1	1.12008E+000	1.13461E-003	0.00000E+000	1.12002E+000	0.00000E+000	10	...........	0	1466.71
	191	19.2	1.11811E+000	1.12866E-003	0.00000E+000	1.11802E+000	0.00000E+000	10	...........	0	1466.71
	192	19.3	1.11610E+000	1.12272E-003	0.00000E+000	1.11602E+000	0.00000E+000	10	...........	0	1466.71
	193	19.4	1.11407E+000	1.11705E-003	0.00000E+000	1.11402E+000	0.00000E+000	10	...........	0	1466.71
	194	19.5	1.11209E+000	1.11141E-003	0.00000E+000	1.11202E+000	0.00000E+000	10	...........	0	1466.71
	195	19.6	1.11007E+000	1.10570E-003	0.00000E+000	1.11002E+000	0.00000E+000	10	...........	0	1466.71
	196	19.7	1.10809E+000	1.10021E-003	0.00000E+000	1.10802E+000	0.00000E+000	10	...........	0	1466.71
	197	19.8	1.10610E+000	1.09468E-003	0.00000E+000	1.10602E+000	0.00000E+000	10	...........	0	1466.71
	198	19.9	1.10409E+000	1.08926E-003	0.00000E+000	1.10402E+000	0.00000E+000	10	...........	0	1466.71
	199	20	1.10209E+000	1.08398E-003	0.00000E+000	1.10202E+000	0.00000E+000	10	...........	0	1466.71
	200	20.1	1.10008E+000	1.07875E-003	0.00000E+000	1.10002E+000	0.00000E+000	10	...........	0	1466.71
	201	20.2	1.09809E+000	1.07374E-003	0.00000E+000	1.09802E+000	0.00000E+000	10	...........	0	1466.71
	202	20.3	1.09605E+000	1.06916E-003	0.00000E+000	1.09598E+000	0.00000E+000	10	...........	0	1466.71
	203	20.4	1.09404E+000	1.06431E-003	0.00000E+000	1.09398E+000	0.00000E+000	10	...........	0	1466.71
	204	20.5	1.09205E+000	1.05969E-003	0.00000E+000	1.09198E+000	0.00000E+000	10	...........	0	1466.71
	205	20.6	1.09005E+000	1.05499E-003	0.00000E+000	1.08998E+000	0.00000E+000	10	...........	0	1466.71
	206	20.7	1.08804E+000	1.05040E-003	0.00000E+000	1.08798E+000	0.00000E+000	10	...........	0	1466.71
	207	20.8	1.08605E+000	1.04583E-003	0.00000E+000	1.08598E+000	0.00000E+000	10	...........	0	1466.71
	208	20.9	1.08404E+000	1.04119E-003	0.00000E+000	1.08398E+000	0.00000E+000	10	...........	0	1466.71
	209	21	1.08206E+000	1.03755E-003	0.00000E+000	1.08198E+000	0.00000E+000	10	...........	0	1466.71
	210	21.1	1.08005E+000	1.03335E-003	0.00000E+000	1.07998E+000	0.00000E+000	10	...........	0	1466.71
	211	21.2	1.07806E+000	1.02916E-003	0.00000E+000	1.07798E+000	0.00000E+000	10	...........	0	1466.71
	212	21.3	1.07602E+000	1.02494E-003	0.00000E+000	1.07598E+000	0.00000E+000	10	...........	0	1466.71
	213	21.4	1.07403E+000	1.02075E-003	0.00000E+000	1.07399E+000	0.00000E+000	10	...........	0	1466.71
	214	21.5	1.07203E+000	1.01675E-003	0.00000E+000	1.07199E+000	0.00000E+000	10	...........	0	1466.71
	215	21.6	1.07004E+000	1.01247E-003	0.00000E+000	1.06999E+000	0.00000E+000	10	...........	0	1466.71
	216	21.7	1.06804E+000	1.00848E-003	0.00000E+000	1.06799E+000	0.00000E+000	10	...........	0	1466.71
	217	21.8	1.06605E+000	1.00429E-003	0.00000E+000	1.06599E+000	0.00000E+000	10	...........	0	1466.71
	218	21.9	1.06406E+000	1.00014E-003	0.00000E+000	1.06399E+000	0.00000E+000	10	...........	0	1466.71
	219	22	1.06205E+000	9.96007E-004	0.00000E+000	1.06199E+000	0.00000E+000	10	...........	0	1466.71
	220	22.1	1.06004E+000	9.91824E-004	0.00000E+000	1.05999E+000	0.00000E+000	10	...........	0	1466.71
	221	22.2	1.05804E+000	9.87706E-004	0.00000E+000	1.05799E+000	0.00000E+000	10	...........	0	1466.71
	222	22.3	1.05606E+000	9.83665E-004	0.00000E+000	1.05599E+000	0.00000E+000	10	...........	0	1466.71
	223	22.4	1.05406E+000	9.79656E-004	0.00000E+000	1.05399E+000	0.00000E+000	10	...........	0	1466.71
	224	22.5	1.05206E+000	9.75535E-004	0.00000E+000	1.05199E+000	0.00000E+000	10	...........	0	1466.71
	225	22.6	1.05004E+000	9.71522E-004	0.00000E+000	1.05000E+000	0.00000E+000	10	...........	0	1466.71
	226	22.7	1.04804E+000	9.67576E-004	0.00000E+000	1.04800E+000	0.00000E+000	10	...........	0	1466.71
	227	22.8	1.04606E+000	9.63626E-004	0.00000E+000	1.04600E+000	0.00000E+000	10	...........	0	1466.71
	228	22.9	1.04406E+000	9.59685E-004	0.00000E+000	1.04400E+000	0.00000E+000	10	...........	0	1466.71
	229	23	1.04206E+000	9.55795E-004	0.00000E+000	1.04200E+000	0.00000E+000	10	...........	0	1466.71
	230	23.1	1.04007E+000	9.51949E-004	0.00000E+000	1.04000E+000	0.00000E+000	10	...........	0	1466.71
	231	23.2	1.03808E+000	9.48092E-004	0.00000E+000	1.03800E+000	0.00000E+000	10	...........	0	1466.71
	232	23.3	1.03605E+000	9.44313E-004	0.00000E+000	1.03600E+000	0.00000E+000	10	...........	0	1466.71
	233	23.4	1.03405E+000	9.40465E-004	0.00000E+000	1.03400E+000	0.00000E+000	10	...........	0	1466.71
	234	23.5	1.03206E+000	9.36752E-004	0.00000E+000	1.03200E+000	0.00000E+000	10	...........	0	1466.71
	235	23.6	1.03006E+000	9.32860E-004	0.00000E+000	1.03000E+000	0.00000E+000	10	...........	0	1466.71
	236	23.7	1.02807E+000	9.29197E-004	0.00000E+000	1.02800E+000	0.00000E+000	10	...........	0	1466.71
	237	23.8	1.02606E+000	9.25494E-004	0.00000E+000	1.02601E+000	0.00000E+000	10	...........	0	1466.71
	238	23.9	1.02406E+000	9.21757E-004	0.00000E+000	1.02401E+000	0.00000E+000	10	...........	0	1466.71
	239	24	1.02206E+000	9.18083E-004	0.00000E+000	1.02201E+000	0.00000E+000	10	...........	0	1466.71
	240	24.1	1.02007E+000	9.14302E-004	0.00000E+000	1.02001E+000	0.00000E+000	10	...........	0	1466.71
	241	24.2	1.01807E+000	9.10621E-004	0.00000E+000	1.01801E+000	0.00000E+000	10	...........	0	1466.71
	242	24.3	1.01607E+000	9.06907E-004	0.00000E+000	1.01601E+000	0.00000E+000	10	...........	0	1466.71
	243	24.4	1.01409E+000	9.03470E-004	0.00000E+000	1.01401E+000	0.00000E+000	10	...........	0	1466.71
	244	24.5	1.01210E+000	8.99719E-004	0.00000E+000	1.01201E+000	0.00000E+000	10	...........	0	1466.71
	245	24.6	1.01007E+000	8.96006E-004	0.00000E+000	1.01001E+000	0.00000E+000	10	...........	0	1466.71
	246	24.7	1.00806E+000	8.92196E-004	0.00000E+000	1.00801E+000	0.00000E+000	10	...........	0	1466.71
	247	24.8	1.00609E+000	8.88559E-004	0.00000E+000	1.00601E+000	0.00000E+000	10	...........	0	1466.71
	248	24.9	1.00408E+000	8.84868E-004	0.00000E+000	1.00401E+000	0.00000E+000	10	...........	0	1466.71
	249	25	1.00209E+000	8.81097E-004	0.00000E+000	1.00202E+000	0.00000E+000	10	...........	0	1466.71
	250	25.1	1.00009E+000	8.77382E-004	0.00000E+000	1.00002E+000	0.00000E+000	10	...........	0	1466.71
	251	25.2	9.98061E-001	8.73615E-004	0.00000E+000	9.98017E-001	0.00000E+000	10	...........	0	1466.71
	252	25.3	9.96070E-001	8.69943E-004	0.00000E+000	9.96018E-001	0.00000E+000	10	...........	0	1466.71
	253	25.4	9.94086E-001	8.66300E-004	0.00000E+000	9.94019E-001	0.00000E+000	10	...........	0	1466.71
	254	25.5	9.92075E-001	8.62524E-004	0.00000E+000	9.92020E-001	0.00000E+000	10	...........	0	1466.71
	255	25.6	9.90086E-001	8.58810E-004	0.00000E+000	9.90021E-001	0.00000E+000	10	...........	0	1466.71
	256	25.7	9.88099E-001	8.55032E-004	0.00000E+000	9.88022E-001	0.00000E+000	10	...........	0	1466.71
	257	25.8	9.86071E-001	8.51311E-004	0.00000E+000	9.86022E-001	0.00000E+000	10	...........	0	1466.71
	258	25.9	9.84076E-001	8.47635E-004	0.00000E+000	9.84023E-001	0.00000E+000	10	...........	0	1466.71
	259	26	9.82071E-001	8.43911E-004	0.00000E+000	9.82024E-001	0.00000E+000	10	...........	0	1466.71
	260	26.1	9.80090E-001	8.40118E-004	0.00000E+000	9.80025E-001	0.00000E+000	10	...........	0	1466.71
	261	26.2	9.78099E-001	8.36378E-004	0.00000E+000	9.78026E-001	0.00000E+000	10	...........	0	1466.71
	262	26.3	9.76038E-001	8.32430E-004	0.00000E+000	9.75977E-001	0.00000E+000	10	...........	0	1466.71
	263	26.4	9.74028E-001	8.28646E-004	0.00000E+000	9.73978E-001	0.00000E+000	10	...........	0	1466.71
	264	26.5	9.72019E-001	8.24886E-004	0.00000E+000	9.71978E-001	0.00000E+000	10	...........	0	1466.71
	265	26.6	9.70014E-001	8.21128E-004	0.00000E+000	9.69979E-001	0.00000E+000	10	...........	0	1466.71
	266	26.7	9.68030E-001	8.17317E-004	0.00000E+000	9.67980E-001	0.00000E+000	10	...........	0	1466.71
	267	26.8	9.66043E-001	8.13479E-004	0.00000E+000	9.65981E-001	0.00000E+000	10	...........	0	1466.71
	268	26.9	9.64047E-001	8.09847E-004	0.00000E+000	9.63982E-001	0.00000E+000	10	...........	0	1466.71
	269	27	9.62041E-001	8.06114E-004	0.00000E+000	9.61983E-001	0.00000E+000	10	...........	0	1466.71
	270	27.1	9.60018E-001	8.01454E-004	0.00000E+000	9.59983E-001	0.00000E+000	9	...........	0	1466.71
	271	27.2	9.58042E-001	7.97735E-004	0.00000E+000	9.57984E-001	0.00000E+000	9	...........	0	1466.71
	272	27.3	9.56028E-001	7.93895E-004	0.00000E+000	9.55985E-001	0.00000E+000	9	...........	0	1466.71
	273	27.4	9.54028E-001	7.90169E-004	0.00000E+000	9.53986E-001	0.00000E+000	9	...........	0	1466.71
	274	27.5	9.52042E-001	7.86450E-004	0.00000E+000	9.51987E-001	0.00000E+000	9	...........	0	1466.71
	275	27.6	9.50064E-001	7.82633E-004	0.00000E+000	9.49988E-001	0.00000E+000	9	...........	0	1466.71
	276	27.7	9.48034E-001	7.78934E-004	0.00000E+000	9.47989E-001	0.00000E+000	9	...........	0	1466.71
	277	27.8	9.46028E-001	7.75115E-004	0.00000E+000	9.45989E-001	0.00000E+000	9	...........	0	1466.71
	278	27.9	9.44043E-001	7.71268E-004	0.00000E+000	9.43990E-001	0.00000E+000	9	...........	0	1466.71
	279	28	9.42050E-001	7.67444E-004	0.00000E+000	9.41991E-001	0.00000E+000	9	...........	0	1466.71
	280	28.1	9.40051E-001	7.63641E-004	0.00000E+000	9.39992E-001	0.00000E+000	9	...........	0	1466.71
	281	28.2	9.38042E-001	7.59838E-004	0.00000E+000	9.37993E-001	0.00000E+000	9	...........	0	1466.71
	282	28.3	9.36053E-001	7.55995E-004	0.00000E+000	9.35994E-001	0.00000E+000	9	...........	0	1466.80
	283	28.4	9.34023E-001	7.52161E-004	0.00000E+000	9.33995E-001	0.00000E+000	9	...........	0	1466.80
	284	28.5	9.32029E-001	7.48270E-004	0.00000E+000	9.31995E-001	0.00000E+000	9	...........	0	1466.80
	285	28.6	9.30038E-001	7.44456E-004	0.00000E+000	9.29996E-001	0.00000E+000	9	...........	0	1466.80
	286	28.7	9.28046E-001	7.40639E-004	0.00000E+000	9.27997E-001	0.00000E+000	9	...........	0	1466.80
	287	28.8	9.26079E-001	7.36794E-004	0.00000E+000	9.25998E-001	0.00000E+000	9	...........	0	1466.80
	288	28.9	9.24068E-001	7.32897E-004	0.00000E+000	9.23999E-001	0.00000E+000	9	...........	0	1466.80
	289	29	9.22024E-001	7.28935E-004	0.00000E+000	9.22000E-001	0.00000E+000	9	...........	0	1466.80
	290	29.1	9.20020E-001	7.25000E-004	0.00000E+000	9.20000E-001	0.00000E+000	9	...........	0	1466.80
	291	29.2	9.18031E-001	7.21052E-004	0.00000E+000	9.18001E-001	0.00000E+000	9	...........	0	1466.80
	292	29.3	9.16050E-001	7.17223E-004	0.00000E+000	9.16002E-001	0.00000E+000	9	...........	0	1466.80
	293	29.4	9.14049E-001	7.13239E-004	0.00000E+000	9.14003E-001	0.00000E+000	9	...........	0	1466.80
	294	29.5	9.12056E-001	7.09315E-004	0.00000E+000	9.12004E-001	0.00000E+000	9	...........	0	1466.80
	295	29.6	9.10066E-001	7.05391E-004	0.00000E+000	9.10005E-001	0.00000E+000	9	...........	0	1466.80
	296	29.7	9.08044E-001	7.01434E-004	0.00000E+000	9.08006E-001	0.00000E+000	9	...........	0	1466.80
	297	29.8	9.06040E-001	6.97433E-004	0.00000E+000	9.06006E-001	0.00000E+000	9	...........	0	1466.80
	298	29.9	9.04038E-001	6.93471E-004	0.00000E+000	9.04007E-001	0.00000E+000	9	...........	0	1466.80
	299	30	9.02052E-001	6.89500E-004	0.00000E+000	9.02008E-001	0.00000E+000	9	...........	0	1466.80
	300	30.1	9.00062E-001	6.85487E-004	0.00000E+000	9.00009E-001	0.00000E+000	9	...........	0	1466.80
	301	30.2	8.98055E-001	6.81523E-004	0.00000E+000	8.98010E-001	0.00000E+000	9	...........	0	1466.80
	302	30.3	8.96027E-001	6.77599E-004	0.00000E+000	8.96011E-001	0.00000E+000	9	...........	0	1466.71
	303	30.4	8.94043E-001	6.73623E-004	0.00000E+000	8.94011E-001	0.00000E+000	9	...........	0	1466.71
	304	30.5	8.92058E-001	6.69630E-004	0.00000E+000	8.92012E-001	0.00000E+000	9	...........	0	1466.71
	305	30.6	8.90047E-001	6.65612E-004	0.00000E+000	8.90013E-001	0.00000E+000	9	...........	0	1466.71
	306	30.7	8.88057E-001	6.61617E-004	0.00000E+000	8.88014E-001	0.00000E+000	9	...........	0	1466.71
	307	30.8	8.86068E-001	6.57608E-004	0.00000E+000	8.86015E-001	0.00000E+000	9	...........	0	1466.71
	308	30.9	8.84067E-001	6.53619E-004	0.00000E+000	8.84016E-001	0.00000E+000	9	...........	0	1466.71
	309	31	8.82044E-001	6.49673E-004	0.00000E+000	8.82017E-001	0.00000E+000	9	...........	0	1466.71
	310	31.1	8.80036E-001	6.45646E-004	0.00000E+000	8.80017E-001	0.00000E+000	9	...........	0	1466.71
	311	31.2	8.78060E-001	6.41674E-004	0.00000E+000	8.78018E-001	0.00000E+000	9	...........	0	1466.71
	312	31.3	8.76070E-001	6.37696E-004	0.00000E+000	8.76019E-001	0.00000E+000	9	...........	0	1466.80
	313	31.4	8.74069E-001	6.33736E-004	0.00000E+000	8.74020E-001	0.00000E+000	9	...........	0	1466.80
	314	31.5	8.72090E-001	6.29761E-004	0.00000E+000	8.72021E-001	0.00000E+000	9	...........	0	1466.80
	315	31.6	8.70043E-001	6.25827E-004	0.00000E+000	8.70022E-001	0.00000E+000	9	...........	0	1466.80
	316	31.7	8.68047E-001	6.21962E-004	0.00000E+000	8.68023E-001	0.00000E+000	9	...........	0	1466.80
	317	31.8	8.66054E-001	6.18118E-004	0.00000E+000	8.66023E-001	0.00000E+000	9	...........	0	1466.80
	318	31.9	8.64055E-001	6.14157E-004	0.00000E+000	8.64024E-001	0.00000E+000	9	...........	0	1466.80
	319	32	8.62061E-001	6.10249E-004	0.00000E+000	8.62025E-001	0.00000E+000	9	...........	0	1466.80
	320	32.1	8.60064E-001	6.06407E-004	0.00000E+000	8.60026E-001	0.00000E+000	9	...........	0	1466.80
	321	32.2	8.57988E-001	6.02390E-004	0.00000E+000	8.57977E-001	0.00000E+000	9	...........	0	1466.80
	322	32.3	8.56003E-001	5.98632E-004	0.00000E+000	8.55978E-001	0.00000E+000	9	...........	0	1466.80
	323	32.4	8.54009E-001	5.94826E-004	0.00000E+000	8.53979E-001	0.00000E+000	9	...........	0	1466.80
	324	32.5	8.52016E-001	5.90982E-004	0.00000E+000	8.51979E-001	0.00000E+000	9	...........	0	1466.80
	325	32.6	8.50017E-001	5.87168E-004	0.00000E+000	8.49980E-001	0.00000E+000	9	...........	0	1466.80
	326	32.7	8.48014E-001	5.83287E-004	0.00000E+000	8.47981E-001	0.00000E+000	9	...........	0	1466.80
	327	32.8	8.46026E-001	5.79471E-004	0.00000E+000	8.45982E-001	0.00000E+000	9	...........	0	1466.80
	328	32.9	8.44007E-001	5.75667E-004	0.00000E+000	8.43983E-001	0.00000E+000	9	...........	0	1466.80
	329	33	8.41999E-001	5.72027E-004	0.00000E+000	8.41984E-001	0.00000E+000	9	...........	0	1466.80
	330	33.1	8.40016E-001	5.68269E-004	0.00000E+000	8.39984E-001	0.00000E+000	9	...........	0	1466.80
	331	33.2	8.38004E-001	5.64506E-004	0.00000E+000	8.37985E-001	0.00000E+000	9	...........	0	1466.80
	332	33.3	8.36025E-001	5.60747E-004	0.00000E+000	8.35986E-001	0.00000E+000	9	...........	0	1466.80
	333	33.4	8.34027E-001	5.57014E-004	0.00000E+000	8.33987E-001	0.00000E+000	9	...........	0	1466.80
	334	33.5	8.32007E-001	5.53289E-004	0.00000E+000	8.31988E-001	0.00000E+000	9	...........	0	1466.80
	335	33.6	8.30024E-001	5.49631E-004	0.00000E+000	8.29989E-001	0.00000E+000	9	...........	0	1466.80
	336	33.7	8.28019E-001	5.45899E-004	0.00000E+000	8.27990E-001	0.00000E+000	9	...........	0	1466.80
	337	33.8	8.26011E-001	5.42134E-004	0.00000E+000	8.25990E-001	0.00000E+000	9	...........	0	1466.80
	338	33.9	8.24015E-001	5.38532E-004	0.00000E+000	8.23991E-001	0.00000E+000	9	...........	0	1466.80
	339	34	8.22024E-001	5.34874E-004	0.00000E+000	8.21992E-001	0.00000E+000	9	...........	0	1466.80
	340	34.1	8.20020E-001	5.31232E-004	0.00000E+000	8.19993E-001	0.00000E+000	9	...........	0	1466.80
	341	34.2	8.18011E-001	5.27656E-004	0.00000E+000	8.17994E-001	0.00000E+000	9	...........	0	1466.80
	342	34.3	8.16014E-001	5.24483E-004	0.00000E+000	8.15995E-001	0.00000E+000	9	...........	0	1466.71
	343	34.4	8.14021E-001	5.24288E-004	0.00000E+000	8.13995E-001	0.00000E+000	9	...........	0	1466.71
	344	34.5	8.12031E-001	5.20737E-004	0.00000E+000	8.11996E-001	0.00000E+000	9	...........	0	1466.71
	345	34.6	8.10040E-001	5.17567E-004	0.00000E+000	8.09997E-001	0.00000E+000	9	...........	0	1466.71
	346	34.7	8.08049E-001	5.14364E-004	0.00000E+000	8.07998E-001	0.00000E+000	9	...........	0	1466.71
	347	34.8	8.06028E-001	5.11024E-004	0.00000E+000	8.05999E-001	0.00000E+000	9	...........	0	1466.71
	348	34.9	8.04025E-001	5.07649E-004	0.00000E+000	8.04000E-001	0.00000E+000	9	...........	0	1466.71
	349	35	8.02023E-001	5.04249E-004	0.00000E+000	8.02001E-001	0.00000E+000	9	...........	0	1466.71
	350	35.1	8.00023E-001	5.00861E-004	0.00000E+000	8.00001E-001	0.00000E+000	9	...........	0	1466.71
	351	35.2	7.98037E-001	4.97424E-004	0.00000E+000	7.98002E-001	0.00000E+000	9	...........	0	1466.71
	352	35.3	7.96029E-001	4.94028E-004	0.00000E+000	7.96003E-001	0.00000E+000	9	...........	0	1466.71
	353	35.4	7.94007E-001	4.90608E-004	0.00000E+000	7.94004E-001	0.00000E+000	9	...........	0	1466.71
	354	35.5	7.92027E-001	4.87214E-004	0.00000E+000	7.92005E-001	0.00000E+000	9	...........	0	1466.71
	355	35.6	7.90023E-001	4.83846E-004	0.00000E+000	7.90006E-001	0.00000E+000	9	...........	0	1466.71
	356	35.7	7.88040E-001	4.80467E-004	0.00000E+000	7.88007E-001	0.00000E+000	9	...........	0	1466.71
	357	35.8	7.86043E-001	4.77056E-004	0.00000E+000	7.86007E-001	0.00000E+000	9	...........	0	1466.71
	358	35.9	7.84051E-001	4.73647E-004	0.00000E+000	7.84008E-001	0.00000E+000	9	...........	0	1466.71
	359	36	7.82046E-001	4.70281E-004	0.00000E+000	7.82009E-001	0.00000E+000	9	...........	0	1466.71
	360	36.1	7.80031E-001	4.66896E-004	0.00000E+000	7.80010E-001	0.00000E+000	9	...........	0	1466.71
	361	36.2	7.78033E-001	4.63533E-004	0.00000E+000	7.78011E-001	0.00000E+000	9	...........	0	1466.71
	362	36.3	7.76043E-001	4.60166E-004	0.00000E+000	7.76012E-001	0.00000E+000	9	...........	0	1466.71
	363	36.4	7.74041E-001	4.56845E-004	0.00000E+000	7.74012E-001	0.00000E+000	9	...........	0	1466.71
	364	36.5	7.72054E-001	4.53531E-004	0.00000E+000	7.72013E-001	0.00000E+000	9	...........	0	1466.71
	365	36.6	7.70033E-001	4.50211E-004	0.00000E+000	7.70014E-001	0.00000E+000	9	...........	0	1466.71
	366	36.7	7.68019E-001	4.46856E-004	0.00000E+000	7.68015E-001	0.00000E+000	9	...........	0	1466.71
	367	36.8	7.66040E-001	4.43540E-004	0.00000E+000	7.66016E-001	0.00000E+000	9	...........	0	1466.71
	368	36.9	7.64044E-001	4.40248E-004	0.00000E+000	7.64017E-001	0.00000E+000	9	...........	0	1466.71
	369	37	7.62024E-001	4.37003E-004	0.00000E+000	7.62018E-001	0.00000E+000	9	...........	0	1466.71
	370	37.1	7.60040E-001	4.33758E-004	0.00000E+000	7.60018E-001	0.00000E+000	9	...........	0	1466.71
	371	37.2	7.58041E-001	4.30512E-004	0.00000E+000	7.58019E-001	0.00000E+000	9	...........	0	1466.71
	372	37.3	7.56058E-001	4.27274E-004	0.00000E+000	7.56020E-001	0.00000E+000	9	...........	0	1466.71
	373	37.4	7.54043E-001	4.24095E-004	0.00000E+000	7.54021E-001	0.00000E+000	9	...........	0	1466.71
	374	37.5	7.52043E-001	4.20898E-004	0.00000E+000	7.52022E-001	0.00000E+000	9	...........	0	1466.71
	375	37.6	7.50055E-001	4.17714E-004	0.00000E+000	7.50023E-001	0.00000E+000	9	...........	0	1466.71
	376	37.7	7.48065E-001	4.14551E-004	0.00000E+000	7.48024E-001	0.00000E+000	9	...........	0	1466.71
	377	37.8	7.46065E-001	4.11389E-004	0.00000E+000	7.46024E-001	0.00000E+000	9	...........	0	1466.71
	378	37.9	7.44061E-001	4.08234E-004	0.00000E+000	7.44025E-001	0.00000E+000	9	...........	0	1466.71
	379	38	7.42030E-001	4.05069E-004	0.00000E+000	7.42026E-001	0.00000E+000	9	...........	0	1466.71
	380	38.1	7.39997E-001	4.01881E-004	0.00000E+000	7.39977E-001	0.00000E+000	9	...........	0	1466.71
	381	38.2	7.37996E-001	3.98737E-004	0.00000E+000	7.37978E-001	0.00000E+000	9	...........	0	1466.71
	382	38.3	7.36004E-001	3.95643E-004	0.00000E+000	7.35979E-001	0.00000E+000	9	...........	0	1466.80
	383	38.4	7.34007E-001	3.92577E-004	0.00000E+000	7.33979E-001	0.00000E+000	9	...........	0	1466.80
	384	38.5	7.32020E-001	3.89513E-004	0.00000E+000	7.31980E-001	0.00000E+000	9	...........	0	1466.80
	385	38.6	7.29990E-001	3.86422E-004	0.00000E+000	7.29981E-001	0.00000E+000	9	...........	0	1466.80
	386	38.7	7.28003E-001	3.83394E-004	0.00000E+000	7.27982E-001	0.00000E+000	9	...........	0	1466.80
	387	38.8	7.25994E-001	3.80273E-004	0.00000E+000	7.25983E-001	0.00000E+000	9	...........	0	1466.80
	388	38.9	7.24013E-001	3.77209E-004	0.00000E+000	7.23984E-001	0.00000E+000	9	...........	0	1466.80
	389	39	7.22015E-001	3.74138E-004	0.00000E+000	7.21985E-001	0.00000E+000	9	...........	0	1466.80
	390	39.1	7.20008E-001	3.71092E-004	0.00000E+000	7.19985E-001	0.00000E+000	9	...........	0	1466.80
	391	39.2	7.17997E-001	3.68023E-004	0.00000E+000	7.17986E-001	0.00000E+000	9	...........	0	1466.80
	392	39.3	7.15990E-001	3.64982E-004	0.00000E+000	7.15987E-001	0.00000E+000	9	...........	0	1466.71
	393	39.4	7.13992E-001	3.61927E-004	0.00000E+000	7.13988E-001	0.00000E+000	9	...........	0	1466.71
	394	39.5	7.12003E-001	3.58889E-004	0.00000E+000	7.11989E-001	0.00000E+000	9	...........	0	1466.71
	395	39.6	7.10013E-001	3.55833E-004	0.00000E+000	7.09990E-001	0.00000E+000	9	...........	0	1466.71
	396	39.7	7.08030E-001	3.52761E-004	0.00000E+000	7.07991E-001	0.00000E+000	9	...........	0	1466.71
	397	39.8	7.06032E-001	3.49731E-004	0.00000E+000	7.05991E-001	0.00000E+000	9	...........	0	1466.71
	398	39.9	7.04011E-001	3.46678E-004	0.00000E+000	7.03992E-001	0.00000E+000	9	...........	0	1466.71
	399	40	7.02006E-001	3.43657E-004	0.00000E+000	7.01993E-001	0.00000E+000	9	...........	0	1466.71
	400	40.1	7.00003E-001	3.40594E-004	0.00000E+000	6.99994E-001	0.00000E+000	9	...........	0	1466.71
	401	40.2	6.97996E-001	3.37542E-004	0.00000E+000	6.97995E-001	0.00000E+000	9	...........	0	1466.71
	402	40.3	6.96011E-001	3.34519E-004	0.00000E+000	6.95996E-001	0.00000E+000	9	...........	0	1466.71
	403	40.4	6.94022E-001	3.31499E-004	0.00000E+000	6.93996E-001	0.00000E+000	9	...........	0	1466.71
	404	40.5	6.92022E-001	3.28480E-004	0.00000E+000	6.91997E-001	0.00000E+000	9	...........	0	1466.71
	405	40.6	6.89995E-001	3.25462E-004	0.00000E+000	6.89998E-001	0.00000E+000	9	...........	0	1466.71
	406	40.7	6.88008E-001	3.22422E-004	0.00000E+000	6.87999E-001	0.00000E+000	9	...........	0	1466.71
	407	40.8	6.86013E-001	3.19375E-004	0.00000E+000	6.86000E-001	0.00000E+000	9	...........	0	1466.71
	408	40.9	6.84017E-001	3.16358E-004	0.00000E+000	6.84001E-001	0.00000E+000	9	...........	0	1466.71
	409	41	6.82014E-001	3.13369E-004	0.00000E+000	6.82002E-001	0.00000E+000	9	...........	0	1466.71
	410	41.1	6.80027E-001	3.10348E-004	0.00000E+000	6.80002E-001	0.00000E+000	9	...........	0	1466.71
	411	41.2	6.78011E-001	3.07325E-004	0.00000E+000	6.78003E-001	0.00000E+000	9	...........	0	1466.71
	412	41.3	6.76015E-001	3.04292E-004	0.00000E+000	6.76004E-001	0.00000E+000	9	...........	0	1466.71
	413	41.4	6.74013E-001	3.01286E-004	0.00000E+000	6.74005E-001	0.00000E+000	9	...........	0	1466.71
	414	41.5	6.72005E-001	2.98253E-004	0.00000E+000	6.72006E-001	0.00000E+000	9	...........	0	1466.71
	415	41.6	6.70026E-001	2.95265E-004	0.00000E+000	6.70007E-001	0.00000E+000	9	...........	0	1466.71
	416	41.7	6.68039E-001	2.92220E-004	0.00000E+000	6.68007E-001	0.00000E+000	9	...........	0	1466.71
	417	41.8	6.65997E-001	2.89207E-004	0.00000E+000	6.66008E-001	0.00000E+000	9	...........	0	1466.71
	418	41.9	6.64004E-001	2.86175E-004	0.00000E+000	6.64009E-001	0.00000E+000	9	...........	0	1466.71
	419	42	6.62000E-001	2.83140E-004	0.00000E+000	6.62010E-001	0.00000E+000	9	...........	0	1466.71
	420	42.1	6.60018E-001	2.80124E-004	0.00000E+000	6.60011E-001	0.00000E+000	9	...........	0	1466.71
	421	42.2	6.58019E-001	2.77076E-004	0.00000E+000	6.58012E-001	0.00000E+000	9	...........	0	1466.71
	422	42.3	6.56018E-001	2.74025E-004	0.00000E+000	6.56013E-001	0.00000E+000	9	...........	0	1466.71
	423	42.4	6.54035E-001	2.70997E-004	0.00000E+000	6.54013E-001	0.00000E+000	9	...........	0	1466.71
	424	42.5	6.52011E-001	2.67992E-004	0.00000E+000	6.52014E-001	0.00000E+000	9	...........	0	1466.71
	425	42.6	6.50007E-001	2.64900E-004	0.00000E+000	6.50015E-001	0.00000E+000	9	...........	0	1466.71
	426	42.7	6.48021E-001	2.61843E-004	0.00000E+000	6.48016E-001	0.00000E+000	9	...........	0	1466.71
	427	42.8	6.46029E-001	2.58817E-004	0.00000E+000	6.46017E-001	0.00000E+000	9	...........	0	1466.71
	428	42.9	6.44040E-001	2.55787E-004	0.00000E+000	6.44018E-001	0.00000E+000	9	...........	0	1466.71
	429	43	6.42030E-001	2.52750E-004	0.00000E+000	6.42018E-001	0.00000E+000	9	...........	0	1466.71
	430	43.1	6.40000E-001	2.49733E-004	0.00000E+000	6.40019E-001	0.00000E+000	9	...........	0	1466.71
	431	43.2	6.38021E-001	2.46717E-004	0.00000E+000	6.38020E-001	0.00000E+000	9	...........	0	1466.71
	432	43.3	6.36022E-001	2.43686E-004	0.00000E+000	6.36021E-001	0.00000E+000	9	...........	0	1466.71
	433	43.4	6.34009E-001	2.40641E-004	0.00000E+000	6.34022E-001	0.00000E+000	9	...........	0	1466.71
	434	43.5	6.32035E-001	2.37592E-004	0.00000E+000	6.32023E-001	0.00000E+000	9	...........	0	1466.71
	435	43.6	6.30022E-001	2.34572E-004	0.00000E+000	6.30024E-001	0.00000E+000	9	...........	0	1466.71
	436	43.7	6.28047E-001	2.31545E-004	0.00000E+000	6.28024E-001	0.00000E+000	9	...........	0	1466.71
	437	43.8	6.26016E-001	2.28509E-004	0.00000E+000	6.26025E-001	0.00000E+000	9	...........	0	1466.71
	438	43.9	6.24020E-001	2.25454E-004	0.00000E+000	6.24026E-001	0.00000E+000	9	...........	0	1466.71
	439	44	6.21988E-001	2.22337E-004	0.00000E+000	6.21977E-001	0.00000E+000	9	...........	0	1466.71
	440	44.1	6.19985E-001	2.19309E-004	0.00000E+000	6.19978E-001	0.00000E+000	9	...........	0	1466.71
	441	44.2	6.17979E-001	2.16300E-004	0.00000E+000	6.17979E-001	0.00000E+000	9	...........	0	1466.71
	442	44.3	6.15980E-001	2.13272E-004	0.00000E+000	6.15980E-001	0.00000E+000	9	...........	0	1466.71
	443	44.4	6.13976E-001	2.10235E-004	0.00000E+000	6.13980E-001	0.00000E+000	9	...........	0	1466.71
	444	44.5	6.11987E-001	2.07235E-004	0.00000E+000	6.11981E-001	0.00000E+000	9	...........	0	1466.71
	445	44.6	6.09990E-001	2.04235E-004	0.00000E+000	6.09982E-001	0.00000E+000	9	...........	0	1466.71
	446	44.7	6.07984E-001	2.01234E-004	0.00000E+000	6.07983E-001	0.00000E+000	9	...........	0	1466.71
	447	44.8	6.05997E-001	1.98215E-004	0.00000E+000	6.05984E-001	0.00000E+000	9	...........	0	1466.71
	448	44.9	6.04007E-001	1.95207E-004	0.00000E+000	6.03985E-001	0.00000E+000	9	...........	0	1466.71
	449	45	6.01965E-001	1.92225E-004	0.00000E+000	6.01986E-001	0.00000E+000	9	...........	0	1466.71
	450	45.1	5.99989E-001	1.89251E-004	0.00000E+000	5.99986E-001	0.00000E+000	9	...........	0	1466.71
	451	45.2	5.97991E-001	1.86261E-004	0.00000E+000	5.97987E-001	0.00000E+000	9	...........	0	1466.71
	452	45.3	5.95997E-001	1.83279E-004	0.00000E+000	5.95988E-001	0.00000E+000	9	...........	0	1466.71
	453	45.4	5.93990E-001	1.80296E-004	0.00000E+000	5.93989E-001	0.00000E+000	9	...........	0	1466.71
	454	45.5	5.92002E-001	1.77356E-004	0.00000E+000	5.91990E-001	0.00000E+000	9	...........	0	1466.71
	455	45.6	5.89992E-001	1.74394E-004	0.00000E+000	5.89991E-001	0.00000E+000	9	...........	0	1466.71
	456	45.7	5.87972E-001	1.71446E-004	0.00000E+000	5.87991E-001	0.00000E+000	9	...........	0	1466.71
	457	45.8	5.85992E-001	1.68498E-004	0.00000E+000	5.85992E-001	0.00000E+000	9	...........	0	1466.71
	458	45.9	5.84007E-001	1.65584E-004	0.00000E+000	5.83993E-001	0.00000E+000	9	...........	0	1466.71
	459	46	5.82010E-001	1.62659E-004	0.00000E+000	5.81994E-001	0.00000E+000	9	...........	0	1466.71
	460	46.1	5.80020E-001	1.59770E-004	0.00000E+000	5.79995E-001	0.00000E+000	9	...........	0	1466.71
	461	46.2	5.78016E-001	1.56873E-004	0.00000E+000	5.77996E-001	0.00000E+000	9	...........	0	1466.71
	462	46.3	5.75991E-001	1.54004E-004	0.00000E+000	5.75997E-001	0.00000E+000	9	...........	0	1466.71
	463	46.4	5.73993E-001	1.51154E-004	0.00000E+000	5.73997E-001	0.00000E+000	9	...........	0	1466.71
	464	46.5	5.71987E-001	1.48287E-004	0.00000E+000	5.71998E-001	0.00000E+000	9	...........	0	1466.71
	465	46.6	5.69990E-001	1.45435E-004	0.00000E+000	5.69999E-001	0.00000E+000	9	...........	0	1466.71
	466	46.7	5.68013E-001	1.42591E-004	0.00000E+000	5.68000E-001	0.00000E+000	9	...........	0	1466.71
	467	46.8	5.66007E-001	1.39726E-004	0.00000E+000	5.66001E-001	0.00000E+000	9	...........	0	1466.71
	468	46.9	5.63995E-001	1.36879E-004	0.00000E+000	5.64002E-001	0.00000E+000	9	...........	0	1466.71
	469	47	5.61982E-001	1.34055E-004	0.00000E+000	5.62002E-001	0.00000E+000	9	...........	0	1466.71
	470	47.1	5.59991E-001	1.31249E-004	0.00000E+000	5.60003E-001	0.00000E+000	9	...........	0	1466.71
	471	47.2	5.58005E-001	1.28458E-004	0.00000E+000	5.58004E-001	0.00000E+000	9	...........	0	1466.71
	472	47.3	5.56009E-001	1.25660E-004	0.00000E+000	5.56005E-001	0.00000E+000	9	...........	0	1466.71
	473	47.4	5.54017E-001	1.22887E-004	0.00000E+000	5.54006E-001	0.00000E+000	9	...........	0	1466.71
	474	47.5	5.52013E-001	1.20108E-004	0.00000E+000	5.52007E-001	0.00000E+000	9	...........	0	1466.71
	475	47.6	5.49999E-001	1.17367E-004	0.00000E+000	5.50008E-001	0.00000E+000	9	...........	0	1466.71
	476	47.7	5.48001E-001	1.14639E-004	0.00000E+000	5.48008E-001	0.00000E+000	9	...........	0	1466.71
	477	47.8	5.46002E-001	1.11911E-004	0.00000E+000	5.46009E-001	0.00000E+000	9	...........	0	1466.71
	478	47.9	5.44038E-001	1.09223E-004	0.00000E+000	5.44010E-001	0.00000E+000	9	...........	0	1466.71
	479	48	5.42027E-001	1.06540E-004	0.00000E+000	5.42011E-001	0.00000E+000	9	...........	0	1466.71
	480	48.1	5.40029E-001	1.03884E-004	0.00000E+000	5.40012E-001	0.00000E+000	9	...........	0	1466.71
	481	48.2	5.38012E-001	1.01253E-004	0.00000E+000	5.38013E-001	0.00000E+000	9	...........	0	1466.71
	482	48.3	5.36025E-001	9.86296E-005	0.00000E+000	5.36013E-001	0.00000E+000	9	...........	0	1466.71
	483	48.4	5.34015E-001	9.60223E-005	0.00000E+000	5.34014E-001	0.00000E+000	9	...........	0	1466.71
	484	48.5	5.32041E-001	9.34760E-005	0.00000E+000	5.32015E-001	0.00000E+000	9	...........	0	1466.71
	485	48.6	5.30029E-001	9.09382E-005	0.00000E+000	5.30016E-001	0.00000E+000	9	...........	0	1466.71
	486	48.7	5.28029E-001	8.83997E-005	0.00000E+000	5.28017E-001	0.00000E+000	9	...........	0	1466.71
	487	48.8	5.26046E-001	8.59269E-005	0.00000E+000	5.26018E-001	0.00000E+000	9	...........	0	1466.71
	488	48.9	5.24027E-001	8.34216E-005	0.00000E+000	5.24019E-001	0.00000E+000	9	...........	0	1466.71
	489	49	5.22019E-001	8.09852E-005	0.00000E+000	5.22019E-001	0.00000E+000	9	...........	0	1466.71
	490	49.1	5.20028E-001	7.83894E-005	0.00000E+000	5.20020E-001	0.00000E+000	8	...........	0	1466.71
	491	49.2	5.18035E-001	7.60169E-005	0.00000E+000	5.18021E-001	0.00000E+000	8	...........	0	1466.71
	492	49.3	5.16039E-001	7.36911E-005	0.00000E+000	5.16022E-001	0.00000E+000	8	...........	0	1466.71
	493	49.4	5.14042E-001	7.13699E-005	0.00000E+000	5.14023E-001	0.00000E+000	8	...........	0	1466.71
	494	49.5	5.12002E-001	6.90813E-005	0.00000E+000	5.12024E-001	0.00000E+000	8	...........	0	1466.71
	495	49.6	5.10023E-001	6.68348E-005	0.00000E+000	5.10025E-001	0.00000E+000	8	...........	0	1466.71
	496	49.7	5.08021E-001	6.46271E-005	0.00000E+000	5.08025E-001	0.00000E+000	8	...........	0	1466.71
	497	49.8	5.06030E-001	6.24457E-005	0.00000E+000	5.06026E-001	0.00000E+000	8	...........	0	1466.71
	498	49.9	5.03978E-001	6.02365E-005	0.00000E+000	5.03977E-001	0.00000E+000	8	...........	0	1466.71
	499	50	5.02001E-001	5.81349E-005	0.00000E+000	5.01978E-001	0.00000E+000	8	...........	0	1466.71
	500	50.1	5.00005E-001	5.60634E-005	0.00000E+000	4.99979E-001	0.00000E+000	8	...........	0	1466.71
	501	50.2	4.97977E-001	5.40480E-005	0.00000E+000	4.97980E-001	0.00000E+000	8	...........	0	1466.71
	502	50.3	4.95979E-001	5.20639E-005	0.00000E+000	4.95981E-001	0.00000E+000	8	...........	0	1466.80
	503	50.4	4.93975E-001	5.01343E-005	0.00000E+000	4.93981E-001	0.00000E+000	8	...........	0	1466.80
	504	50.5	4.92000E-001	4.82335E-005	0.00000E+000	4.91982E-001	0.00000E+000	8	...........	0	1466.80
	505	50.6	4.89996E-001	4.63899E-005	0.00000E+000	4.89983E-001	0.00000E+000	8	...........	0	1466.80
	506	50.7	4.87999E-001	4.45821E-005	0.00000E+000	4.87984E-001	0.00000E+000	8	...........	0	1466.80
	507	50.8	4.85971E-001	4.28076E-005	0.00000E+000	4.85985E-001	0.00000E+000	8	...........	0	1466.80
	508	50.9	4.83982E-001	4.10738E-005	0.00000E+000	4.83986E-001	0.00000E+000	8	...........	0	1466.80
	509	51	4.81981E-001	3.93891E-005	0.00000E+000	4.81986E-001	0.00000E+000	8	...........	0	1466.80
	510	51.1	4.79975E-001	3.77514E-005	0.00000E+000	4.79987E-001	0.00000E+000	8	...........	0	1466.80
	511	51.2	4.77994E-001	3.61831E-005	0.00000E+000	4.77988E-001	0.00000E+000	8	...........	0	1466.80
	512	51.3	4.76005E-001	3.46273E-005	0.00000E+000	4.75989E-001	0.00000E+000	8	...........	0	1466.71
	513	51.4	4.74003E-001	3.31227E-005	0.00000E+000	4.73990E-001	0.00000E+000	8	...........	0	1466.71
	514	51.5	4.71992E-001	3.16693E-005	0.00000E+000	4.71991E-001	0.00000E+000	8	...........	0	1466.71
	515	51.6	4.69982E-001	3.02471E-005	0.00000E+000	4.69992E-001	0.00000E+000	8	...........	0	1466.71
	516	51.7	4.67986E-001	2.88757E-005	0.00000E+000	4.67992E-001	0.00000E+000	8	...........	0	1466.71
	517	51.8	4.65992E-001	2.75512E-005	0.00000E+000	4.65993E-001	0.00000E+000	8	...........	0	1466.71
	518	51.9	4.63998E-001	2.62932E-005	0.00000E+000	4.63994E-001	0.00000E+000	8	...........	0	1466.71
	519	52	4.62003E-001	2.50640E-005	0.00000E+000	4.61995E-001	0.00000E+000	8	...........	0	1466.71
	520	52.1	4.59975E-001	2.38877E-005	0.00000E+000	4.59996E-001	0.00000E+000	8	...........	0	1466.71
	521	52.2	4.57989E-001	2.27531E-005	0.00000E+000	4.57997E-001	0.00000E+000	8	...........	0	1466.71
	522	52.3	4.55987E-001	2.16591E-005	0.00000E+000	4.55997E-001	0.00000E+000	8	...........	0	1466.71
	523	52.4	4.53980E-001	2.06137E-005	0.00000E+000	4.53998E-001	0.00000E+000	8	...........	0	1466.71
	524	52.5	4.52003E-001	1.95891E-005	0.00000E+000	4.51999E-001	0.00000E+000	8	...........	0	1466.71
	525	52.6	4.50007E-001	1.86194E-005	0.00000E+000	4.50000E-001	0.00000E+000	8	...........	0	1466.71
	526	52.7	4.47982E-001	1.76899E-005	0.00000E+000	4.48001E-001	0.00000E+000	8	...........	0	1466.71
	527	52.8	4.45998E-001	1.67920E-005	0.00000E+000	4.46002E-001	0.00000E+000	8	...........	0	1466.71
	528	52.9	4.43995E-001	1.59503E-005	0.00000E+000	4.44003E-001	0.00000E+000	8	...........	0	1466.71
	529	53	4.42012E-001	1.51333E-005	0.00000E+000	4.42003E-001	0.00000E+000	8	...........	0	1466.71
	530	53.1	4.40008E-001	1.43658E-005	0.00000E+000	4.40004E-001	0.00000E+000	8	...........	0	1466.71
	531	53.2	4.38011E-001	1.36396E-005	0.00000E+000	4.38005E-001	0.00000E+000	8	...........	0	1466.71
	532	53.3	4.36022E-001	1.29343E-005	0.00000E+000	4.36006E-001	0.00000E+000	8	...........	0	1466.71
	533	53.4	4.34001E-001	1.22707E-005	0.00000E+000	4.34007E-001	0.00000E+000	8	...........	0	1466.71
	534	53.5	4.31995E-001	1.16458E-005	0.00000E+000	4.32008E-001	0.00000E+000	8	...........	0	1466.71
	535	53.6	4.30003E-001	1.10477E-005	0.00000E+000	4.30009E-001	0.00000E+000	8	...........	0	1466.71
	536	53.7	4.28015E-001	1.04787E-005	0.00000E+000	4.28009E-001	0.00000E+000	8	...........	0	1466.71
	537	53.8	4.26026E-001	9.94177E-006	0.00000E+000	4.26010E-001	0.00000E+000	8	...........	0	1466.71
	538	53.9	4.24017E-001	9.42903E-006	0.00000E+000	4.24011E-001	0.00000E+000	8	...........	0	1466.71
	539	54	4.21998E-001	8.93520E-006	0.00000E+000	4.22012E-001	0.00000E+000	8	...........	0	1466.71
	540	54.1	4.19999E-001	8.49185E-006	0.00000E+000	4.20013E-001	0.00000E+000	8	...........	0	1466.71
	541	54.2	4.18000E-001	8.06515E-006	0.00000E+000	4.18014E-001	0.00000E+000	8	...........	0	1466.71
	542	54.3	4.15992E-001	7.64919E-006	0.00000E+000	4.16014E-001	0.00000E+000	7	...........	0	1466.71
	543	54.4	4.13996E-001	7.26472E-006	0.00000E+000	4.14015E-001	0.00000E+000	7	...........	0	1466.71
	544	54.5	4.11997E-001	6.90773E-006	0.00000E+000	4.12016E-001	0.00000E+000	7	...........	0	1466.71
	545	54.6	4.10021E-001	6.57640E-006	0.00000E+000	4.10017E-001	0.00000E+000	7	...........	0	1466.71
	546	54.7	4.08028E-001	6.26931E-006	0.00000E+000	4.08018E-001	0.00000E+000	7	...........	0	1466.71
	547	54.8	4.06023E-001	5.98286E-006	0.00000E+000	4.06019E-001	0.00000E+000	7	...........	0	1466.71
	548	54.9	4.04037E-001	5.70328E-006	0.00000E+000	4.04020E-001	0.00000E+000	7	...........	0	1466.71
	549	55	4.02041E-001	5.43128E-006	0.00000E+000	4.02020E-001	0.00000E+000	7	...........	0	1466.71
	550	55.1	4.00030E-001	5.18471E-006	0.00000E+000	4.00021E-001	0.00000E+000	7	...........	0	1466.71
	551	55.2	3.98044E-001	4.96241E-006	0.00000E+000	3.98022E-001	0.00000E+000	7	...........	0	1466.71
	552	55.3	3.96020E-001	4.74137E-006	0.00000E+000	3.96023E-001	0.00000E+000	7	...........	0	1466.80
	553	55.4	3.94025E-001	4.53881E-006	0.00000E+000	3.94024E-001	0.00000E+000	7	...........	0	1466.80
	554	55.5	3.92024E-001	4.34561E-006	0.00000E+000	3.92025E-001	0.00000E+000	7	...........	0	1466.80
	555	55.6	3.90045E-001	4.16159E-006	0.00000E+000	3.90025E-001	0.00000E+000	7	...........	0	1466.80
	556	55.7	3.88040E-001	3.99402E-006	0.00000E+000	3.88026E-001	0.00000E+000	7	...........	0	1466.80
	557	55.8	3.86000E-001	3.81220E-006	0.00000E+000	3.85977E-001	0.00000E+000	7	...........	0	1466.80
	558	55.9	3.83969E-001	3.66846E-006	0.00000E+000	3.83978E-001	0.00000E+000	7	...........	0	1466.80
	559	56	3.81977E-001	3.52393E-006	0.00000E+000	3.81979E-001	0.00000E+000	7	...........	0	1466.80
	560	56.1	3.79988E-001	3.39274E-006	0.00000E+000	3.79980E-001	0.00000E+000	7	...........	0	1466.80
	561	56.2	3.77993E-001	3.26898E-006	0.00000E+000	3.77981E-001	0.00000E+000	7	...........	0	1466.80
	562	56.3	3.75998E-001	3.14638E-006	0.00000E+000	3.75981E-001	0.00000E+000	7	...........	0	1466.71
	563	56.4	3.73999E-001	3.02736E-006	0.00000E+000	3.73982E-001	0.00000E+000	7	...........	0	1466.71
	564	56.5	3.72001E-001	2.91953E-006	0.00000E+000	3.71983E-001	0.00000E+000	7	...........	0	1466.71
	565	56.6	3.69974E-001	2.81758E-006	0.00000E+000	3.69984E-001	0.00000E+000	7	...........	0	1466.71
	566	56.7	3.67977E-001	2.70381E-006	0.00000E+000	3.67985E-001	0.00000E+000	7	...........	0	1466.71
	567	56.8	3.65998E-001	2.60669E-006	0.00000E+000	3.65986E-001	0.00000E+000	7	...........	0	1466.71
	568	56.9	3.64006E-001	2.51009E-006	0.00000E+000	3.63987E-001	0.00000E+000	7	...........	0	1466.71
	569	57	3.62018E-001	2.41313E-006	0.00000E+000	3.61987E-001	0.00000E+000	7	...........	0	1466.71
	570	57.1	3.60008E-001	2.31922E-006	0.00000E+000	3.59988E-001	0.00000E+000	7	...........	0	1466.71
	571	57.2	3.57983E-001	2.23242E-006	0.00000E+000	3.57989E-001	0.00000E+000	7	...........	0	1466.71
	572	57.3	3.55983E-001	2.15350E-006	0.00000E+000	3.55990E-001	0.00000E+000	7	...........	0	1466.71
	573	57.4	3.53993E-001	2.06272E-006	0.00000E+000	3.53991E-001	0.00000E+000	7	...........	0	1466.71
	574	57.5	3.51989E-001	1.98825E-006	0.00000E+000	3.51992E-001	0.00000E+000	7	...........	0	1466.71
	575	57.6	3.50010E-001	1.89669E-006	0.00000E+000	3.49993E-001	0.00000E+000	7	...........	0	1466.71
	576	57.7	3.48005E-001	1.82290E-006	0.00000E+000	3.47993E-001	0.00000E+000	7	...........	0	1466.71
	577	57.8	3.46021E-001	1.74275E-006	0.00000E+000	3.45994E-001	0.00000E+000	7	...........	0	1466.71
	578	57.9	3.43988E-001	1.66040E-006	0.00000E+000	3.43995E-001	0.00000E+000	7	...........	0	1466.71
	579	58	3.41997E-001	1.58341E-006	0.00000E+000	3.41996E-001	0.00000E+000	7	...........	0	1466.71
	580	58.1	3.40006E-001	1.51052E-006	0.00000E+000	3.39997E-001	0.00000E+000	7	...........	0	1466.71
	581	58.2	3.38008E-001	1.43451E-006	0.00000E+000	3.37998E-001	0.00000E+000	7	...........	0	1466.71
	582	58.3	3.36013E-001	1.35898E-006	0.00000E+000	3.35998E-001	0.00000E+000	7	...........	0	1466.71
	583	58.4	3.34019E-001	1.28217E-006	0.00000E+000	3.33999E-001	0.00000E+000	7	...........	0	1466.71
	584	58.5	3.31991E-001	1.21176E-006	0.00000E+000	3.32000E-001	0.00000E+000	7	...........	0	1466.71
	585	58.6	3.30025E-001	1.13540E-006	0.00000E+000	3.30001E-001	0.00000E+000	7	...........	0	1466.71
	586	58.7	3.28023E-001	1.06801E-006	0.00000E+000	3.28002E-001	0.00000E+000	7	...........	0	1466.71
	587	58.8	3.26017E-001	9.91061E-007	0.00000E+000	3.26003E-001	0.00000E+000	7	...........	0	1466.71
	588	58.9	3.24026E-001	9.27267E-007	0.00000E+000	3.24004E-001	0.00000E+000	7	...........	0	1466.71
	589	59	3.22023E-001	8.58858E-007	0.00000E+000	3.22004E-001	0.00000E+000	7	...........	0	1466.71
	590	59.1	3.19995E-001	7.77825E-007	0.00000E+000	3.20005E-001	0.00000E+000	7	...........	0	1466.71
	591	59.2	3.18001E-001	7.20001E-007	0.00000E+000	3.18006E-001	0.00000E+000	6	...........	0	1466.71
	592	59.3	3.16012E-001	6.42510E-007	0.00000E+000	3.16007E-001	0.00000E+000	6	...........	0	1466.71
	593	59.4	3.14031E-001	5.57928E-007	0.00000E+000	3.14008E-001	0.00000E+000	6	...........	0	1466.71
	594	59.5	3.12015E-001	5.02928E-007	0.00000E+000	3.12009E-001	0.00000E+000	6	...........	0	1466.71
	595	59.6	3.10045E-001	4.26740E-007	0.00000E+000	3.10009E-001	0.00000E+000	6	...........	0	1466.71
	596	59.7	3.08023E-001	3.56056E-007	0.00000E+000	3.08010E-001	0.00000E+000	6	...........	0	1466.71
	597	59.8	3.06007E-001	2.78438E-007	0.00000E+000	3.06011E-001	0.00000E+000	6	...........	0	1466.71
	598	59.9	3.04000E-001	1.93432E-007	0.00000E+000	3.04012E-001	0.00000E+000	6	...........	0	1466.71
	599	60	3.02008E-001	1.08310E-007	0.00000E+000	3.02013E-001	0.00000E+000	6	...........	0	1466.71
	600	60.1	3.00021E-001	3.51178E-008	0.00000E+000	3.00014E-001	0.00000E+000	6	...........	0	1466.71
	601	60.2	2.98009E-001	-6.96676E-008	0.00000E+000	2.98015E-001	0.00000E+000	5	....ih..i..	0	1466.71
	602	60.3	2.96017E-001	-1.09149E-007	0.00000E+000	2.96015E-001	0.00000E+000	5	....ih..i..	0	1466.71
	603	60.4	2.94018E-001	-1.90033E-007	0.00000E+000	2.94016E-001	0.00000E+000	6	...........	0	1466.71
	604	60.5	2.92012E-001	-2.66294E-007	0.00000E+000	2.92017E-001	0.00000E+000	6	...........	0	1466.71
	605	60.6	2.90026E-001	-3.52113E-007	0.00000E+000	2.90018E-001	0.00000E+000	6	...........	0	1466.71
	606	60.7	2.88030E-001	-4.38463E-007	0.00000E+000	2.88019E-001	0.00000E+000	6	...........	0	1466.71
	607	60.8	2.86038E-001	-5.16033E-007	0.00000E+000	2.86020E-001	0.00000E+000	6	...........	0	1466.71
	608	60.9	2.84040E-001	-6.00374E-007	0.00000E+000	2.84021E-001	0.00000E+000	6	...........	0	1466.71
	609	61	2.82035E-001	-6.91258E-007	0.00000E+000	2.82021E-001	0.00000E+000	6	...........	0	1466.71
	610	61.1	2.80025E-001	-7.63875E-007	0.00000E+000	2.80022E-001	0.00000E+000	6	...........	0	1466.71
	611	61.2	2.78033E-001	-8.53308E-007	0.00000E+000	2.78023E-001	0.00000E+000	6	.....h.....	0	1466.71
	612	61.3	2.76045E-001	-9.39207E-007	0.00000E+000	2.76024E-001	0.00000E+000	6	.....h.....	0	1466.44
	613	61.4	2.74038E-001	-1.03285E-006	0.00000E+000	2.74025E-001	0.00000E+000	7	...........	0	1466.44
	614	61.5	2.72031E-001	-1.12204E-006	0.00000E+000	2.72026E-001	0.00000E+000	7	...........	0	1466.44
	615	61.6	2.70043E-001	-1.21125E-006	0.00000E+000	2.70026E-001	0.00000E+000	7	...........	0	1466.44
	616	61.7	2.67975E-001	-1.31779E-006	0.00000E+000	2.67977E-001	0.00000E+000	7	...........	0	1466.44
	617	61.8	2.65966E-001	-1.41499E-006	0.00000E+000	2.65978E-001	0.00000E+000	7	...........	0	1466.44
	618	61.9	2.63972E-001	-1.51252E-006	0.00000E+000	2.63979E-001	0.00000E+000	7	...........	0	1466.44
	619	62	2.61992E-001	-1.60637E-006	0.00000E+000	2.61980E-001	0.00000E+000	7	...........	0	1466.44
	620	62.1	2.59992E-001	-1.70102E-006	0.00000E+000	2.59981E-001	0.00000E+000	7	...........	0	1466.44
	621	62.2	2.58007E-001	-1.80605E-006	0.00000E+000	2.57982E-001	0.00000E+000	7	...........	0	1466.44
	622	62.3	2.55953E-001	-1.91130E-006	0.00000E+000	2.55982E-001	0.00000E+000	7	...........	0	1466.62
	623	62.4	2.53980E-001	-2.02179E-006	0.00000E+000	2.53983E-001	0.00000E+000	7	...........	0	1466.62
	624	62.5	2.51977E-001	-2.12975E-006	0.00000E+000	2.51984E-001	0.00000E+000	7	...........	0	1466.62
	625	62.6	2.49995E-001	-2.23689E-006	0.00000E+000	2.49985E-001	0.00000E+000	7	...........	0	1466.62
	626	62.7	2.47993E-001	-2.34963E-006	0.00000E+000	2.47986E-001	0.00000E+000	7	...........	0	1466.62
	627	62.8	2.45996E-001	-2.47240E-006	0.00000E+000	2.45987E-001	0.00000E+000	7	...........	0	1466.62
	628	62.9	2.43984E-001	-2.58299E-006	0.00000E+000	2.43988E-001	0.00000E+000	7	...........	0	1466.62
	629	63	2.41973E-001	-2.69585E-006	0.00000E+000	2.41988E-001	0.00000E+000	7	...........	0	1466.62
	630	63.1	2.39975E-001	-2.82712E-006	0.00000E+000	2.39989E-001	0.00000E+000	7	...........	0	1466.62
	631	63.2	2.37998E-001	-2.94376E-006	0.00000E+000	2.37990E-001	0.00000E+000	7	...........	0	1466.62
	632	63.3	2.35991E-001	-3.06490E-006	0.00000E+000	2.35991E-001	0.00000E+000	7	...........	0	1466.71
	633	63.4	2.34003E-001	-3.19368E-006	0.00000E+000	2.33992E-001	0.00000E+000	7	...........	0	1466.71
	634	63.5	2.32003E-001	-3.33065E-006	0.00000E+000	2.31993E-001	0.00000E+000	7	...........	0	1466.71
	635	63.6	2.29980E-001	-3.47098E-006	0.00000E+000	2.29993E-001	0.00000E+000	7	...........	0	1466.71
	636	63.7	2.27986E-001	-3.60449E-006	0.00000E+000	2.27994E-001	0.00000E+000	7	...........	0	1466.71
	637	63.8	2.25980E-001	-3.73100E-006	0.00000E+000	2.25995E-001	0.00000E+000	7	...........	0	1466.71
	638	63.9	2.23988E-001	-3.87530E-006	0.00000E+000	2.23996E-001	0.00000E+000	7	...........	0	1466.71
	639	64	2.21993E-001	-4.01259E-006	0.00000E+000	2.21997E-001	0.00000E+000	7	...........	0	1466.71
	640	64.1	2.20014E-001	-4.16627E-006	0.00000E+000	2.19998E-001	0.00000E+000	7	...........	0	1466.71
	641	64.2	2.18022E-001	-4.31355E-006	0.00000E+000	2.17999E-001	0.00000E+000	7	...........	0	1466.71
	642	64.3	2.15988E-001	-4.47291E-006	0.00000E+000	2.15999E-001	0.00000E+000	7	...........	0	1466.71
	643	64.4	2.13988E-001	-4.62598E-006	0.00000E+000	2.14000E-001	0.00000E+000	7	...........	0	1466.71
	644	64.5	2.11984E-001	-4.78233E-006	0.00000E+000	2.12001E-001	0.00000E+000	7	...........	0	1466.71
	645	64.6	2.10000E-001	-4.95494E-006	0.00000E+000	2.10002E-001	0.00000E+000	7	...........	0	1466.71
	646	64.7	2.07993E-001	-5.12808E-006	0.00000E+000	2.08003E-001	0.00000E+000	7	...........	0	1466.71
	647	64.8	2.06017E-001	-5.30321E-006	0.00000E+000	2.06004E-001	0.00000E+000	7	...........	0	1466.71
	648	64.9	2.04002E-001	-5.49340E-006	0.00000E+000	2.04004E-001	0.00000E+000	7	...........	0	1466.71
	649	65	2.02013E-001	-5.69304E-006	0.00000E+000	2.02005E-001	0.00000E+000	7	...........	0	1466.71
	650	65.1	2.00005E-001	-5.89261E-006	0.00000E+000	2.00006E-001	0.00000E+000	7	...........	0	1466.71
	651	65.2	1.98008E-001	-6.07947E-006	0.00000E+000	1.98007E-001	0.00000E+000	7	...........	0	1466.71
	652	65.3	1.96021E-001	-6.27830E-006	0.00000E+000	1.96008E-001	0.00000E+000	7	...........	0	1466.71
	653	65.4	1.94038E-001	-6.49316E-006	0.00000E+000	1.94009E-001	0.00000E+000	7	...........	0	1466.71
	654	65.5	1.92007E-001	-6.70395E-006	0.00000E+000	1.92010E-001	0.00000E+000	7	...........	0	1466.71
	655	65.6	1.90013E-001	-6.93484E-006	0.00000E+000	1.90010E-001	0.00000E+000	7	...........	0	1466.71
	656	65.7	1.88027E-001	-7.16268E-006	0.00000E+000	1.88011E-001	0.00000E+000	7	...........	0	1466.71
	657	65.8	1.86032E-001	-7.39115E-006	0.00000E+000	1.86012E-001	0.00000E+000	7	...........	0	1466.71
	658	65.9	1.84026E-001	-7.63027E-006	0.00000E+000	1.84013E-001	0.00000E+000	7	...........	0	1466.71
	659	66	1.82020E-001	-7.87149E-006	0.00000E+000	1.82014E-001	0.00000E+000	7	...........	0	1466.71
	660	66.1	1.80011E-001	-8.11165E-006	0.00000E+000	1.80015E-001	0.00000E+000	7	...........	0	1466.71
	661	66.2	1.78006E-001	-8.35893E-006	0.00000E+000	1.78016E-001	0.00000E+000	7	...........	0	1466.71
	662	66.3	1.76006E-001	-8.60136E-006	0.00000E+000	1.76016E-001	0.00000E+000	7	...........	0	1466.71
	663	66.4	1.74034E-001	-8.85609E-006	0.00000E+000	1.74017E-001	0.00000E+000	7	...........	0	1466.71
	664	66.5	1.72022E-001	-9.10950E-006	0.00000E+000	1.72018E-001	0.00000E+000	7	...........	0	1466.71
	665	66.6	1.70033E-001	-9.36356E-006	0.00000E+000	1.70019E-001	0.00000E+000	8	...........	0	1466.71
	666	66.7	1.68028E-001	-9.61105E-006	0.00000E+000	1.68020E-001	0.00000E+000	8	...........	0	1466.71
	667	66.8	1.66017E-001	-9.87800E-006	0.00000E+000	1.66021E-001	0.00000E+000	8	...........	0	1466.71
	668	66.9	1.64011E-001	-1.01252E-005	0.00000E+000	1.64021E-001	0.00000E+000	8	...........	0	1466.71
	669	67	1.62024E-001	-1.03604E-005	0.00000E+000	1.62022E-001	0.00000E+000	8	...........	0	1466.71
	670	67.1	1.60023E-001	-1.05962E-005	0.00000E+000	1.60023E-001	0.00000E+000	8	...........	0	1466.71
	671	67.2	1.58037E-001	-1.08315E-005	0.00000E+000	1.58024E-001	0.00000E+000	8	...........	0	1466.71
	672	67.3	1.56036E-001	-1.10503E-005	0.00000E+000	1.56025E-001	0.00000E+000	8	...........	0	1466.80
	673	67.4	1.54009E-001	-1.12615E-005	0.00000E+000	1.54026E-001	0.00000E+000	8	...........	0	1466.80
	674	67.5	1.52004E-001	-1.14577E-005	0.00000E+000	1.52027E-001	0.00000E+000	8	...........	0	1466.80
	675	67.6	1.50013E-001	-1.16374E-005	0.00000E+000	1.50027E-001	0.00000E+000	8	...........	0	1466.80
	676	67.7	1.47978E-001	-1.18282E-005	0.00000E+000	1.47978E-001	0.00000E+000	8	...........	0	1466.80
	677	67.8	1.45975E-001	-1.19700E-005	0.00000E+000	1.45979E-001	0.00000E+000	8	...........	0	1466.80
	678	67.9	1.43977E-001	-1.20965E-005	0.00000E+000	1.43980E-001	0.00000E+000	8	...........	0	1466.80
	679	68	1.41971E-001	-1.22089E-005	0.00000E+000	1.41981E-001	0.00000E+000	8	...........	0	1466.80
	680	68.1	1.39955E-001	-1.23024E-005	0.00000E+000	1.39982E-001	0.00000E+000	8	...........	0	1466.80
	681	68.2	1.37974E-001	-1.23751E-005	0.00000E+000	1.37983E-001	0.00000E+000	8	...........	0	1466.80
	682	68.3	1.35972E-001	-1.24114E-005	0.00000E+000	1.35983E-001	0.00000E+000	8	...........	0	1466.71
	683	68.4	1.33995E-001	-1.24265E-005	0.00000E+000	1.33984E-001	0.00000E+000	8	...........	0	1466.71
	684	68.5	1.32013E-001	-1.24337E-005	0.00000E+000	1.31985E-001	0.00000E+000	8	...........	0	1466.71
	685	68.6	1.30013E-001	-1.24089E-005	0.00000E+000	1.29986E-001	0.00000E+000	8	...........	0	1466.71
	686	68.7	1.27966E-001	-1.23562E-005	0.00000E+000	1.27987E-001	0.00000E+000	8	...........	0	1466.71
	687	68.8	1.25981E-001	-1.22812E-005	0.00000E+000	1.25988E-001	0.00000E+000	8	...........	0	1466.71
	688	68.9	1.23993E-001	-1.21906E-005	0.00000E+000	1.23988E-001	0.00000E+000	8	...........	0	1466.71
	689	69	1.22004E-001	-1.20835E-005	0.00000E+000	1.21989E-001	0.00000E+000	8	...........	0	1466.71
	690	69.1	1.20004E-001	-1.19368E-005	0.00000E+000	1.19990E-001	0.00000E+000	8	...........	0	1466.71
	691	69.2	1.18010E-001	-1.17719E-005	0.00000E+000	1.17991E-001	0.00000E+000	8	...........	0	1466.71
	692	69.3	1.16005E-001	-1.15911E-005	0.00000E+000	1.15992E-001	0.00000E+000	8	...........	0	1466.71
	693	69.4	1.14010E-001	-1.13983E-005	0.00000E+000	1.13993E-001	0.00000E+000	8	...........	0	1466.71
	694	69.5	1.11988E-001	-1.12039E-005	0.00000E+000	1.11994E-001	0.00000E+000	8	...........	0	1466.71
	695	69.6	1.09996E-001	-1.09947E-005	0.00000E+000	1.09994E-001	0.00000E+000	8	...........	0	1466.71
	696	69.7	1.08003E-001	-1.07832E-005	0.00000E+000	1.07995E-001	0.00000E+000	8	...........	0	1466.71
	697	69.8	1.06019E-001	-1.05666E-005	0.00000E+000	1.05996E-001	0.00000E+000	8	...........	0	1466.71
	698	69.9	1.03999E-001	-1.03408E-005	0.00000E+000	1.03997E-001	0.00000E+000	8	...........	0	1466.71
	699	70	1.01988E-001	-1.01256E-005	0.00000E+000	1.01998E-001	0.00000E+000	8	...........	0	1466.71
	700	70.1	9.99943E-002	-9.90610E-006	0.00000E+000	9.99987E-002	0.00000E+000	8	...........	0	1466.71
	701	70.2	9.80104E-002	-9.69282E-006	0.00000E+000	9.79995E-002	0.00000E+000	8	...........	0	1466.71
	702	70.3	9.60001E-002	-9.48298E-006	0.00000E+000	9.60004E-002	0.00000E+000	8	...........	0	1466.71
	703	70.4	9.39984E-002	-9.28449E-006	0.00000E+000	9.40012E-002	0.00000E+000	8	...........	0	1466.71
	704	70.5	9.20030E-002	-9.08373E-006	0.00000E+000	9.20020E-002	0.00000E+000	8	...........	0	1466.71
	705	70.6	9.00319E-002	-8.89893E-006	0.00000E+000	9.00029E-002	0.00000E+000	8	...........	0	1466.71
	706	70.7	8.80093E-002	-8.71364E-006	0.00000E+000	8.80038E-002	0.00000E+000	8	...........	0	1466.71
	707	70.8	8.60130E-002	-8.54709E-006	0.00000E+000	8.60046E-002	0.00000E+000	8	...........	0	1466.71
	708	70.9	8.40110E-002	-8.38139E-006	0.00000E+000	8.40055E-002	0.00000E+000	8	...........	0	1466.71
	709	71	8.19971E-002	-8.22875E-006	0.00000E+000	8.20063E-002	0.00000E+000	8	...........	0	1466.71
	710	71.1	8.00138E-002	-8.08119E-006	0.00000E+000	8.00071E-002	0.00000E+000	8	...........	0	1466.71
	711	71.2	7.80296E-002	-7.95198E-006	0.00000E+000	7.80080E-002	0.00000E+000	7	...........	0	1466.71
	712	71.3	7.60109E-002	-7.81877E-006	0.00000E+000	7.60089E-002	0.00000E+000	7	...........	0	1466.71
	713	71.4	7.40277E-002	-7.69846E-006	0.00000E+000	7.40097E-002	0.00000E+000	7	...........	0	1466.71
	714	71.5	7.20163E-002	-7.56728E-006	0.00000E+000	7.20105E-002	0.00000E+000	7	...........	0	1466.71
	715	71.6	7.00242E-002	-7.44866E-006	0.00000E+000	7.00114E-002	0.00000E+000	7	...........	0	1466.71
	716	71.7	6.80378E-002	-7.33907E-006	0.00000E+000	6.80122E-002	0.00000E+000	7	...........	0	1466.71
	717	71.8	6.60350E-002	-7.22633E-006	0.00000E+000	6.60131E-002	0.00000E+000	7	...........	0	1466.71
	718	71.9	6.40178E-002	-7.12626E-006	0.00000E+000	6.40140E-002	0.00000E+000	7	...........	0	1466.71
	719	72	6.19958E-002	-7.04069E-006	0.00000E+000	6.20148E-002	0.00000E+000	7	...........	0	1466.71
	720	72.1	6.00150E-002	-6.94905E-006	0.00000E+000	6.00156E-002	0.00000E+000	7	...........	0	1466.71
	721	72.2	5.80347E-002	-6.86998E-006	0.00000E+000	5.80165E-002	0.00000E+000	7	...........	0	1466.71
	722	72.3	5.60200E-002	-6.80237E-006	0.00000E+000	5.60173E-002	0.00000E+000	7	...........	0	1466.80
	723	72.4	5.40462E-002	-6.73842E-006	0.00000E+000	5.40182E-002	0.00000E+000	7	...........	0	1466.80
	724	72.5	5.20338E-002	-6.67011E-006	0.00000E+000	5.20191E-002	0.00000E+000	7	...........	0	1466.80
	725	72.6	5.00030E-002	-6.60275E-006	0.00000E+000	5.00199E-002	0.00000E+000	7	...........	0	1466.80
	726	72.7	4.80213E-002	-6.54301E-006	0.00000E+000	4.80207E-002	0.00000E+000	7	...........	0	1466.80
	727	72.8	4.60236E-002	-6.47759E-006	0.00000E+000	4.60216E-002	0.00000E+000	7	...........	0	1466.80
	728	72.9	4.40131E-002	-6.42140E-006	0.00000E+000	4.40224E-002	0.00000E+000	7	...........	0	1466.80
	729	73	4.20347E-002	-6.36648E-006	0.00000E+000	4.20233E-002	0.00000E+000	7	...........	0	1466.80
	730	73.1	4.00412E-002	-6.31358E-006	0.00000E+000	4.00241E-002	0.00000E+000	7	...........	0	1466.80
	731	73.2	3.80024E-002	-6.27710E-006	0.00000E+000	3.80250E-002	0.00000E+000	7	...........	0	1466.80
	732	73.3	3.60146E-002	-6.24300E-006	0.00000E+000	3.60258E-002	0.00000E+000	7	...........	0	1466.71
	733	73.4	3.40206E-002	-6.20671E-006	0.00000E+000	3.40267E-002	0.00000E+000	7	...........	0	1466.71
	734	73.5	3.20548E-002	-6.18115E-006	0.00000E+000	3.20275E-002	0.00000E+000	7	...........	0	1466.71
	735	73.6	3.00074E-002	-6.16624E-006	0.00000E+000	2.99784E-002	0.00000E+000	7	...........	0	1466.71
	736	73.7	2.80028E-002	-6.13036E-006	0.00000E+000	2.79793E-002	0.00000E+000	7	...........	0	1466.71
	737	73.8	2.59952E-002	-6.09626E-006	0.00000E+000	2.59801E-002	0.00000E+000	7	...........	0	1466.71
	738	73.9	2.39758E-002	-6.07420E-006	0.00000E+000	2.39809E-002	0.00000E+000	7	...........	0	1466.71
	739	74	2.19778E-002	-6.04910E-006	0.00000E+000	2.19818E-002	0.00000E+000	7	...........	0	1466.71
	740	74.1	1.99848E-002	-6.03278E-006	0.00000E+000	1.99826E-002	0.00000E+000	7	...........	0	1466.71
	741	74.2	1.79931E-002	-6.01644E-006	0.00000E+000	1.79835E-002	0.00000E+000	7	...........	0	1466.71
	742	74.3	1.60042E-002	-6.00404E-006	0.00000E+000	1.59844E-002	0.00000E+000	7	...........	0	1466.71
	743	74.4	1.39959E-002	-5.98501E-006	0.00000E+000	1.39852E-002	0.00000E+000	7	...........	0	1466.71
	744	74.5	1.19783E-002	-5.97033E-006	0.00000E+000	1.19860E-002	0.00000E+000	7	...........	0	1466.71
	745	74.6	9.98040E-003	-5.95612E-006	0.00000E+000	9.98688E-003	0.00000E+000	7	...........	0	1466.71
	746	74.7	7.98976E-003	-5.94178E-006	0.00000E+000	7.98774E-003	0.00000E+000	7	...........	0	1466.71
	747	74.8	5.98360E-003	-5.93082E-006	0.00000E+000	5.98860E-003	0.00000E+000	7	...........	0	1466.71
	748	74.9	3.99635E-003	-5.92179E-006	0.00000E+000	3.98940E-003	0.00000E+000	7	...........	0	1466.71
	749	75	1.98459E-003	-5.90823E-006	0.00000E+000	1.99026E-003	0.00000E+000	7	...........	0	1466.71
	750	75.1	-7.80218E-005	-5.90471E-006	0.00000E+000	-8.88109E-006	0.00000E+000	7	...........	0	1466.71
